time,amplitude
0,-0.00227
0.002,0.00073
0.004,0.00509
0.006,0.00454
0.008,0.00354
0.01,0.00109
0.012,-0.00245
0.014,0.00027
0.016,0.00332
0.018,0.00218
0.02,0.00563
0.022,0.00509
0.024,0.00618
0.026,0.00545
0.028,0.00168
0.03,9.00E-05
0.032,0.00436
0.034,0.00436
0.036,-0.00436
0.038,-0.004
0.04,0
0.042,-0.00218
0.044,0.00227
0.046,0.00309
0.048,0.00613
0.05,0.00995
0.052,0.00908
0.054,-0.00618
0.056,-0.00554
0.058,0.00531
0.06,0.00445
0.062,-0.00236
0.064,-0.00236
0.066,0.00527
0.068,0.00218
0.07,-0.0015
0.072,-0.00163
0.074,-0.00391
0.076,-0.00127
0.078,-9.00E-05
0.08,0.00218
0.082,0.00372
0.084,0.00218
0.086,-0.00145
0.088,0
0.09,0.00263
0.092,0.00254
0.094,0.00327
0.096,0.01789
0.098,-0.00359
0.1,-0.01362
0.102,-0.00872
0.104,-0.00563
0.106,0.00073
0.108,-0.00064
0.11,-0.00309
0.112,-0.001
0.114,-0.00109
0.116,0.005
0.118,0.00581
0.12,-0.0119
0.122,-0.00645
0.124,-0.001
0.126,0.00182
0.128,0.00182
0.13,0.00027
0.132,0.00999
0.134,0.00618
0.136,-0.00073
0.138,0.00073
0.14,0.00436
0.142,0.00704
0.144,0.00672
0.146,0.00372
0.148,0.00073
0.15,-0.00109
0.152,0.00032
0.154,0.0035
0.156,0.00259
0.158,0.00254
0.16,0.00354
0.162,0.00509
0.164,0.004
0.166,0.00436
0.168,0.00309
0.17,0.00291
0.172,0.003
0.174,0.00672
0.176,0.00586
0.178,0.00563
0.18,0.002
0.182,0.00459
0.184,0.00372
0.186,0.0153
0.188,0.01599
0.19,-0.01467
0.192,-0.0079
0.194,-0.00136
0.196,0.00272
0.198,0.00345
0.2,0.00549
0.202,0.00254
0.204,-0.00327
0.206,0.00163
0.208,0.03715
0.21,-0.00581
0.212,-0.01944
0.214,-0.00336
0.216,-0.00027
0.218,0.00672
0.22,0.00636
0.222,0.00445
0.224,0.00136
0.226,0.004
0.228,0.00454
0.23,0.02057
0.232,0.02289
0.234,-0.00418
0.236,-0.03542
0.238,-0.00536
0.24,0.00277
0.242,0.00363
0.244,0.00554
0.246,0.00032
0.248,-0.01072
0.25,0.00472
0.252,0.00922
0.254,0.00881
0.256,0.00527
0.258,-0.00563
0.26,-0.00254
0.262,0.0069
0.264,0.00609
0.266,0.01235
0.268,0.00436
0.27,-0.0109
0.272,-0.00413
0.274,0.00118
0.276,0.00572
0.278,0.00668
0.28,-0.00018
0.282,0.00295
0.284,0.00032
0.286,0.00109
0.288,0.00032
0.29,0.00254
0.292,0.00032
0.294,0.00182
0.296,0.00091
0.298,0.00032
0.3,0.00145
0.302,0.00472
0.304,0.01108
0.306,-0.00064
0.308,-0.001
0.31,0.00145
0.312,0.00654
0.314,0.00318
0.316,-0.00327
0.318,0.00418
0.32,0.0049
0.322,-0.00045
0.324,-0.00699
0.326,0.00718
0.328,0.004
0.33,0.00032
0.332,-0.00817
0.334,-0.00354
0.336,0.00531
0.338,0.0069
0.34,9.00E-05
0.342,-0.00981
0.344,-0.00059
0.346,0.004
0.348,0.00345
0.35,0.00354
0.352,0.00236
0.354,0.00545
0.356,0.01353
0.358,-0.00159
0.36,0.01035
0.362,0.00781
0.364,-0.00863
0.366,-0.00254
0.368,-0.00127
0.37,-0.00282
0.372,-0.00023
0.374,0.00218
0.376,0.00327
0.378,0.00163
0.38,0.002
0.382,0.00381
0.384,0.00277
0.386,0.00354
0.388,0.00272
0.39,0.00313
0.392,0.00654
0.394,-0.00418
0.396,-0.001
0.398,0.00254
0.4,0.00436
0.402,0.001
0.404,0.01026
0.406,0.0149
0.408,0.00767
0.41,-0.01126
0.412,-0.01217
0.414,0.00427
0.416,-0.00418
0.418,-0.00672
0.42,0.00254
0.422,0.00454
0.424,-0.00073
0.426,0.00145
0.428,0.004
0.43,0.00622
0.432,-0.00073
0.434,9.00E-05
0.436,0.00182
0.438,0.004
0.44,0.00254
0.442,0.00318
0.444,0.00341
0.446,0.00254
0.448,0.00277
0.45,-0.00041
0.452,-0.00073
0.454,-0.00123
0.456,-0.00073
0.458,0
0.46,0.00227
0.462,0.00322
0.464,0.00263
0.466,0.00218
0.468,0.00454
0.47,0.00309
0.472,0.00291
0.474,0.00254
0.476,0.00127
0.478,0
0.48,-0.00136
0.482,0.00109
0.484,0.00418
0.486,0.00109
0.488,0.01426
0.49,0
0.492,0.00154
0.494,0.01326
0.496,0.00963
0.498,-0.01998
0.5,-0.00572
0.502,0.00291
0.504,-0.00145
0.506,0.00018
0.508,-0.00163
0.51,0.00182
0.512,0.00277
0.514,0.00318
0.516,0.00109
0.518,-0.00054
0.52,0.00027
0.522,0.00191
0.524,0.00341
0.526,0.00127
0.528,-0.00173
0.53,-0.00127
0.532,0.002
0.534,0.00327
0.536,0.00163
0.538,0.00204
0.54,0.00363
0.542,0.00313
0.544,0.00109
0.546,0.002
0.548,0.00345
0.55,0.0045
0.552,0.00863
0.554,-0.00436
0.556,0.00195
0.558,-0.00291
0.56,0.00436
0.562,0.00554
0.564,0.00409
0.566,0.00636
0.568,0.01203
0.57,-0.01844
0.572,-0.01726
0.574,-0.00109
0.576,0.00581
0.578,0.01617
0.58,0.00963
0.582,-0.01322
0.584,0.00332
0.586,0.00445
0.588,0.00418
0.59,0.00163
0.592,0.00032
0.594,-0.00054
0.596,0.00322
0.598,0.00904
0.6,0.00622
0.602,-0.00509
0.604,-0.003
0.606,-0.00377
0.608,0.00018
0.61,0.00295
0.612,0.00309
0.614,0.00218
0.616,0.00681
0.618,0.00509
0.62,-0.00173
0.622,-0.00282
0.624,0.00472
0.626,0.00018
0.628,0.00459
0.63,0
0.632,-0.00718
0.634,-0.00209
0.636,0.01199
0.638,0.00854
0.64,0.00704
0.642,-0.01126
0.644,-0.01199
0.646,-0.00363
0.648,-0.00427
0.65,0.00091
0.652,0.003
0.654,0.00354
0.656,0.00572
0.658,0.00663
0.66,0.00332
0.662,0.00672
0.664,0.00345
0.666,0.00182
0.668,0.00073
0.67,0.00381
0.672,0.00263
0.674,0.00145
0.676,0.00568
0.678,0.00332
0.68,-0.00082
0.682,0.00327
0.684,0.00109
0.686,0.00032
0.688,0.00381
0.69,0.00418
0.692,0.00291
0.694,0.00372
0.696,0.00254
0.698,0.00627
0.7,0.00263
0.702,-0.00064
0.704,0.00586
0.706,0.00599
0.708,0.00114
0.71,-0.0049
0.712,-0.00509
0.714,-0.00173
0.716,-0.00136
0.718,0.00727
0.72,0.00509
0.722,0.00472
0.724,0.00182
0.726,-0.00059
0.728,0.00463
0.73,0.00363
0.732,-0.00091
0.734,-0.00054
0.736,0.00291
0.738,-0.00291
0.74,-0.00263
0.742,0.00027
0.744,0.00127
0.746,0.00309
0.748,0.00409
0.75,-0.00032
0.752,0.00291
0.754,-0.00173
0.756,0.005
0.758,0.02657
0.76,0.00327
0.762,0
0.764,-0.01653
0.766,0.00218
0.768,-0.00332
0.77,-0.00091
0.772,-0.00073
0.774,0.00572
0.776,0.00736
0.778,0.00563
0.78,-0.00054
0.782,-0.00572
0.784,-0.00163
0.786,0.00586
0.788,0.00545
0.79,0.00627
0.792,-0.004
0.794,-0.00163
0.796,0.00332
0.798,0.005
0.8,0.00018
0.802,0
0.804,0.00018
0.806,0.00436
0.808,-0.00091
0.81,-0.00327
0.812,0.00372
0.814,0.00145
0.816,-0.00218
0.818,0.00613
0.82,0.00686
0.822,0.00404
0.824,-0.00109
0.826,-0.00518
0.828,0.00472
0.83,0.03533
0.832,0.00032
0.834,-0.02688
0.836,-0.00163
0.838,0.00699
0.84,-0.00908
0.842,-0.00654
0.844,-0.00027
0.846,0.00363
0.848,0.00363
0.85,0.00236
0.852,0.00336
0.854,0.00477
0.856,0.00223
0.858,0.0049
0.86,0.00881
0.862,0.00109
0.864,0.00109
0.866,0.0049
0.868,0.00023
0.87,-0.00436
0.872,-0.00581
0.874,0
0.876,-0.00191
0.878,0.00609
0.88,0.00731
0.882,0.00836
0.884,0.00926
0.886,-0.00036
0.888,-0.00718
0.89,-0.00109
0.892,-0.00563
0.894,0.00118
0.896,0.00599
0.898,0.00032
0.9,0.00109
0.902,0.0054
0.904,0.00495
0.906,0.00985
0.908,-0.0089
0.91,-0.00054
0.912,-0.00254
0.914,-0.00427
0.916,-0.00018
0.918,0.00772
0.92,0.00472
0.922,0.00295
0.924,-0.00363
0.926,-0.00145
0.928,0.00109
0.93,0.00186
0.932,0.00277
0.934,0.00254
0.936,0.00808
0.938,0.01562
0.94,-0.01072
0.942,-0.00363
0.944,0.00531
0.946,0.00027
0.948,0.00032
0.95,0.00054
0.952,0.00204
0.954,0.00531
0.956,0.0119
0.958,-0.00345
0.96,-0.00363
0.962,0.00073
0.964,0.00259
0.966,-0.00159
0.968,0.00182
0.97,0.00277
0.972,0.00354
0.974,0.00027
0.976,-0.00173
0.978,0.00727
0.98,0.00618
0.982,0.00345
0.984,0.00032
0.986,0.00926
0.988,0.0109
0.99,0
0.992,-0.004
0.994,-0.00363
0.996,-0.00073
0.998,-0.00027
1,-0.00145
1.002,0.00313
1.004,0.00336
1.006,0.00018
1.008,-0.00159
1.01,0.00182
1.012,0.00182
1.014,0.00236
1.016,0.003
1.018,-0.00109
1.02,-0.00154
1.022,0.00295
1.024,0.01326
1.026,0.00672
1.028,0.00454
1.03,0.00345
1.032,-0.00177
1.034,-0.00177
1.036,0.00132
1.038,0.00418
1.04,0.00109
1.042,0.00145
1.044,-0.00073
1.046,-0.00136
1.048,9.00E-05
1.05,-0.00241
1.052,0.00422
1.054,0.00336
1.056,0.00763
1.058,0.01962
1.06,-0.00195
1.062,-0.01144
1.064,-0.00799
1.066,0.00163
1.068,0.02171
1.07,0.00736
1.072,-0.01585
1.074,-0.01017
1.076,0.00554
1.078,0.00781
1.08,-0.00136
1.082,-0.00963
1.084,-0.00282
1.086,0.00132
1.088,0.00227
1.09,-0.00263
1.092,0.00554
1.094,0.00581
1.096,0.00518
1.098,0.00327
1.1,0.00309
1.102,0.01081
1.104,-0.00254
1.106,0.00018
1.108,0.00372
1.11,0.01494
1.112,-0.00663
1.114,-0.00668
1.116,-0.00427
1.118,0.00386
1.12,-0.00291
1.122,0.00318
1.124,0.004
1.126,0.00223
1.128,0.00609
1.13,0.00318
1.132,0.00163
1.134,0.00127
1.136,0.00191
1.138,0.00163
1.14,0.00672
1.142,-0.00018
1.144,0.00422
1.146,0.00436
1.148,-0.00745
1.15,0.00736
1.152,0.00073
1.154,-0.00263
1.156,-0.00336
1.158,0.00036
1.16,0.00291
1.162,0.00345
1.164,0.01199
1.166,0.00023
1.168,0.0015
1.17,0.00527
1.172,0.00332
1.174,-0.00645
1.176,-0.00545
1.178,0
1.18,0.00363
1.182,0.00549
1.184,0.00386
1.186,0.00114
1.188,0.00082
1.19,0.00032
1.192,0.00345
1.194,0.00073
1.196,-0.00059
1.198,0.00999
1.2,0.00291
1.202,-0.00036
1.204,-0.00363
1.206,0.00073
1.208,0.00182
1.21,-0.00145
1.212,0.00163
1.214,0.00545
1.216,0.00027
1.218,0.00027
1.22,0.00754
1.222,0.00654
1.224,-0.00282
1.226,-0.00163
1.228,-0.001
1.23,-0.00054
1.232,0.00327
1.234,0
1.236,0.00036
1.238,0.00345
1.24,-0.00409
1.242,0.00545
1.244,0.00073
1.246,0.00295
1.248,0.00409
1.25,-0.00182
1.252,0.00291
1.254,0.00436
1.256,-0.00073
1.258,0.00073
1.26,0.00309
1.262,0.00023
1.264,0.00254
1.266,0.00908
1.268,-0.00291
1.27,-0.00282
1.272,0.00304
1.274,0.00254
1.276,-0.00213
1.278,0.01362
1.28,0.02916
1.282,-0.00836
1.284,-0.02252
1.286,0.00082
1.288,0.0089
1.29,-0.00827
1.292,0.01163
1.294,-0.01517
1.296,-0.00972
1.298,0.00182
1.3,0.00509
1.302,0.00322
1.304,0.00463
1.306,0.01231
1.308,-0.00291
1.31,-0.00036
1.312,0.00163
1.314,0.00232
1.316,0.0069
1.318,0.004
1.32,0.00813
1.322,0.01312
1.324,0.00182
1.326,-0.00191
1.328,-0.00749
1.33,-0.00936
1.332,-0.0069
1.334,0.00799
1.336,0.01276
1.338,0.00922
1.34,0.00908
1.342,-0.00799
1.344,0
1.346,-0.00132
1.348,0.00027
1.35,0.00154
1.352,0.00736
1.354,0
1.356,0.00027
1.358,0.00109
1.36,-9.00E-05
1.362,0.00032
1.364,0.004
1.366,0.00672
1.368,0.003
1.37,-0.00245
1.372,0.00327
1.374,0.00472
1.376,0.00391
1.378,0.0049
1.38,0.00363
1.382,0.00027
1.384,0.00427
1.386,0.00481
1.388,0.00372
1.39,-0.00454
1.392,0.00454
1.394,0.00391
1.396,0.00722
1.398,0.0035
1.4,-0.00604
1.402,-0.01485
1.404,-0.01344
1.406,-0.00127
1.408,0.00363
1.41,0.00182
1.412,0.00599
1.414,0.00599
1.416,0.00154
1.418,0.00708
1.42,0.00545
1.422,-0.00109
1.424,0.00182
1.426,0.00477
1.428,0.00695
1.43,0.00091
1.432,0.00218
1.434,0.00091
1.436,0.00091
1.438,-0.00054
1.44,0.00268
1.442,0.00509
1.444,0.00218
1.446,0.00127
1.448,-0.00045
1.45,0.00073
1.452,-0.004
1.454,0.00554
1.456,0.00872
1.458,0.00372
1.46,-0.00291
1.462,-0.00463
1.464,0.01871
1.466,-0.01026
1.468,-0.00318
1.47,0.00032
1.472,0.00118
1.474,0.002
1.476,-0.00254
1.478,0.00109
1.48,0.00109
1.482,0.00472
1.484,0.00581
1.486,0.00182
1.488,-0.00381
1.49,0.00836
1.492,0.00817
1.494,0.00836
1.496,0.01653
1.498,-0.0149
1.5,-0.00763
1.502,0.00073
1.504,0.00563
1.506,0.00531
1.508,0.00073
1.51,-0.00109
1.512,-0.00518
1.514,-0.00023
1.516,0.00436
1.518,0.01708
1.52,-0.0084
1.522,-0.00436
1.524,0.00163
1.526,0.00699
1.528,0.002
1.53,-0.00309
1.532,0.00182
1.534,0.00032
1.536,0.00272
1.538,0.00145
1.54,0.00836
1.542,0.01253
1.544,-0.00609
1.546,0.00327
1.548,0.00291
1.55,0.01022
1.552,0.0054
1.554,-0.01253
1.556,-0.00817
1.558,-0.00436
1.56,0.00109
1.562,0.00263
1.564,0.00836
1.566,0.00926
1.568,0.00191
1.57,-0.00145
1.572,0
1.574,0.00345
1.576,0.001
1.578,-0.00309
1.58,-0.00599
1.582,0.00436
1.584,0.00372
1.586,0.00636
1.588,-0.00127
1.59,0.01063
1.592,0.00463
1.594,-0.001
1.596,-0.00018
1.598,-0.00418
1.6,0.00254
1.602,0.00241
1.604,0.004
1.606,0.00232
1.608,0.00218
1.61,0.001
1.612,0.00345
1.614,0.00363
1.616,0
1.618,0
1.62,0.00572
1.622,0.00218
1.624,0.00091
1.626,0.00322
1.628,-0.00104
1.63,-0.00282
1.632,0.00436
1.634,0.00554
1.636,0.00032
1.638,0.00254
1.64,0.00182
1.642,0.00613
1.644,0.00799
1.646,-0.005
1.648,-0.00381
1.65,-0.00073
1.652,-0.00218
1.654,-0.002
1.656,0.00109
1.658,0.00218
1.66,0.00354
1.662,0.00272
1.664,-0.00454
1.666,0.00114
1.668,-0.00381
1.67,0.00418
1.672,0.00658
1.674,0.00354
1.676,-0.00082
1.678,-0.00363
1.68,0.00618
1.682,0.00799
1.684,0.00309
1.686,-0.00182
1.688,0.00163
1.69,0.00136
1.692,0.00218
1.694,0.00813
1.696,0.00036
1.698,-0.00272
1.7,0.00073
1.702,0.00945
1.704,0.00531
1.706,-0.00109
1.708,0.0035
1.71,0.00218
1.712,0.00817
1.714,0.01708
1.716,0.00881
1.718,-0.01916
1.72,-0.02098
1.722,-0.00654
1.724,0.01126
1.726,0.00854
1.728,0.00032
1.73,0.00472
1.732,-0.01544
1.734,-0.00945
1.736,0.001
1.738,0.00618
1.74,0.00817
1.742,0.00563
1.744,-0.00036
1.746,0.00563
1.748,0.00777
1.75,0.00441
1.752,0.00127
1.754,-0.00036
1.756,0.00027
1.758,0.00182
1.76,0.00545
1.762,0
1.764,-0.00132
1.766,-0.002
1.768,-0.00254
1.77,0.00472
1.772,0.01326
1.774,0.01757
1.776,-0.01471
1.778,-0.0049
1.78,0.00799
1.782,-0.01508
1.784,-0.00572
1.786,0.00223
1.788,0.00863
1.79,0.00036
1.792,0.0178
1.794,0.0287
1.796,0.03529
1.798,0.03197
1.8,0.02725
1.802,0.01499
1.804,0.01054
1.806,-0.00163
1.808,-0.02679
1.81,-0.06385
1.812,-0.07593
1.814,-0.07121
1.816,-0.03878
1.818,0.00032
1.82,0.01571
1.822,0.01817
1.824,0.01617
1.826,0.01744
1.828,0.01962
1.83,0.01726
1.832,0.00981
1.834,-0.00418
1.836,0.00581
1.838,0.0059
1.84,0.00581
1.842,0.00445
1.844,0.01208
1.846,0.00854
1.848,0.00654
1.85,0.00304
1.852,0.00295
1.854,0.00327
1.856,0.00881
1.858,0.01126
1.86,0.01326
1.862,0.00858
1.864,0.00654
1.866,0.01035
1.868,0.0139
1.87,0.00654
1.872,-0.00381
1.874,-0.00963
1.876,-0.00327
1.878,0.003
1.88,0.01499
1.882,-0.00064
1.884,-0.01217
1.886,-0.01635
1.888,-0.02116
1.89,-0.01453
1.892,-0.00259
1.894,-0.0149
1.896,-0.01626
1.898,-0.00145
1.9,0.005
1.902,0.00817
1.904,0.00509
1.906,0.00745
1.908,-0.00145
1.91,0.00454
1.912,0.01054
1.914,0.01789
1.916,0.02198
1.918,0.03365
1.92,0.0386
1.922,0.00708
1.924,0.0069
1.926,-0.01344
1.928,-0.00613
1.93,0.01417
1.932,0.03274
1.934,0.01471
1.936,-0.00472
1.938,0.01599
1.94,0.03715
1.942,0.03429
1.944,-0.02293
1.946,-0.09664
1.948,-0.09537
1.95,-0.02997
1.952,-0.01671
1.954,-0.00799
1.956,-0.01272
1.958,-0.01426
1.96,-0.00254
1.962,0.01535
1.964,-0.01435
1.966,-0.0347
1.968,-0.00672
1.97,0.00509
1.972,0.04487
1.974,0.06176
1.976,0.04668
1.978,0.02543
1.98,0.02066
1.982,0.01853
1.984,-0.0149
1.986,-0.02797
1.988,-0.03551
1.99,-0.0272
1.992,-0.0109
1.994,0.01063
1.996,0.02357
1.998,0.02343
2,-0.00609
2.002,-0.00908
2.004,-0.00127
2.006,-0.00182
2.008,0.00808
2.01,0.01353
2.012,0.01045
2.014,0.01199
2.016,0.01308
2.018,0.00845
2.02,0.00799
2.022,0.00554
2.024,0.00073
2.026,0.00163
2.028,0.00509
2.03,0.004
2.032,0.00745
2.034,0.00145
2.036,0.00731
2.038,0.00777
2.04,-0.00054
2.042,0.00154
2.044,0.01435
2.046,-0.00436
2.048,-0.01153
2.05,0.00241
2.052,-0.00336
2.054,0.00073
2.056,-0.00036
2.058,-0.00309
2.06,-0.00027
2.062,0.00077
2.064,0.00018
2.066,0.00109
2.068,-0.00204
2.07,-0.00327
2.072,0.00263
2.074,0.00018
2.076,0.00163
2.078,-0.00123
2.08,0.00109
2.082,0.00109
2.084,-0.00708
2.086,0.01126
2.088,0.00454
2.09,0.00563
2.092,0.00572
2.094,0.00672
2.096,0.00268
2.098,-0.0059
2.1,-0.0059
2.102,-0.0069
2.104,0.00109
2.106,-0.00145
2.108,-0.00163
2.11,0.00913
2.112,0.00218
2.114,0.00509
2.116,-0.00218
2.118,0.00127
2.12,0.00745
2.122,-0.003
2.124,-0.00236
2.126,0.00118
2.128,0.00073
2.13,-0.00091
2.132,0.00549
2.134,0.00327
2.136,-0.00173
2.138,0.01063
2.14,0.01599
2.142,0.01726
2.144,0.01371
2.146,0.00708
2.148,0.00645
2.15,0.00618
2.152,-0.00118
2.154,-0.00718
2.156,-0.01835
2.158,-0.02062
2.16,0.01798
2.162,0.03524
2.164,0.01408
2.166,0.00291
2.168,0.00127
2.17,-0.0327
2.172,-0.05713
2.174,-0.04619
2.176,-0.02552
2.178,0.01081
2.18,0.02116
2.182,0.02779
2.184,0.02112
2.186,-0.00282
2.188,-0.02212
2.19,-0.01285
2.192,0.01344
2.194,0.02289
2.196,0.01907
2.198,0.01717
2.2,0.0059
2.202,0.00836
2.204,0.00872
2.206,-0.00581
2.208,-0.02534
2.21,-0.01253
2.212,0.00745
2.214,0.01272
2.216,0.00872
2.218,0.00463
2.22,0.00581
2.222,0.00354
2.224,0.00082
2.226,-0.00509
2.228,-0.00381
2.23,0.00195
2.232,0.00609
2.234,0.01635
2.236,0.00363
2.238,-0.00604
2.24,0.00032
2.242,0.00436
2.244,0.00459
2.246,0.00332
2.248,-0.0089
2.25,-0.00454
2.252,0.00404
2.254,-0.00127
2.256,0.00531
2.258,0.00636
2.26,0.00091
2.262,-0.00236
2.264,-0.00036
2.266,0.00945
2.268,-0.00018
2.27,-0.00136
2.272,-0.00254
2.274,-0.00436
2.276,0.00127
2.278,0.00436
2.28,0.0129
2.282,0.00154
2.284,0.01471
2.286,0.01562
2.288,0.00695
2.29,0.00218
2.292,0.00436
2.294,-0.00409
2.296,-0.01362
2.298,-0.00427
2.3,0.00436
2.302,0.00318
2.304,0.00463
2.306,0
2.308,0.00836
2.31,-0.00272
2.312,-0.00563
2.314,-0.00132
2.316,-0.00064
2.318,-0.00282
2.32,-0.00109
2.322,-0.00799
2.324,-0.00727
2.326,0.00663
2.328,0.00341
2.33,0.00109
2.332,-0.00363
2.334,0.00145
2.336,0.00618
2.338,0.01004
2.34,0.00999
2.342,0.01326
2.344,0.01871
2.346,0.0119
2.348,0.00145
2.35,-0.02225
2.352,-0.01812
2.354,-0.01158
2.356,-0.00563
2.358,0.00372
2.36,0.00563
2.362,0.00054
2.364,0.00345
2.366,0.0079
2.368,0.00872
2.37,0.00204
2.372,0.00581
2.374,0.01744
2.376,0.01926
2.378,0.01689
2.38,0.01344
2.382,0.00445
2.384,0.00032
2.386,-0.01417
2.388,-0.0134
2.39,-0.02107
2.392,-0.03161
2.394,-0.01444
2.396,0.01172
2.398,0.00454
2.4,-0.00391
2.402,0.00985
2.404,0.00926
2.406,0.00436
2.408,-0.01199
2.41,-0.00291
2.412,0.01435
2.414,0.00827
2.416,0.00345
2.418,0.00999
2.42,0.01426
2.422,0.0069
2.424,0.01026
2.426,0.02688
2.428,0.01426
2.43,0.0109
2.432,0.0193
2.434,0.0139
2.436,0.01163
2.438,0.00636
2.44,-0.01322
2.442,-0.01853
2.444,-0.01444
2.446,-0.04105
2.448,-0.08751
2.45,-0.0465
2.452,0.00032
2.454,0.01035
2.456,0.00218
2.458,0.01508
2.46,0.02053
2.462,0.01285
2.464,0.00908
2.466,0.00985
2.468,0.01726
2.47,0.01344
2.472,0.00817
2.474,0.00109
2.476,0.01826
2.478,0.01744
2.48,0.01344
2.482,0.00427
2.484,0.00027
2.486,0.0089
2.488,0.01349
2.49,0.0089
2.492,0.00363
2.494,-0.0297
2.496,-0.00817
2.498,0.00182
2.5,0.00999
2.502,0.00318
2.504,-0.00763
2.506,-0.02507
2.508,-0.02434
2.51,-0.00536
2.512,-0.00109
2.514,0.00109
2.516,0.00836
2.518,0.00518
2.52,0.01381
2.522,0.02189
2.524,0.01553
2.526,0.01035
2.528,0.01753
2.53,0.01076
2.532,0.00554
2.534,-0.00381
2.536,0.00127
2.538,0.01408
2.54,0.03279
2.542,0.02207
2.544,-0.01962
2.546,-0.03433
2.548,-0.03647
2.55,-0.0109
2.552,-0.03106
2.554,-0.01635
2.556,-0.00531
2.558,-0.02943
2.56,-0.02979
2.562,-0.00827
2.564,0.00032
2.566,0.01617
2.568,0.04578
2.57,0.04682
2.572,0.01835
2.574,0.02906
2.576,0.02761
2.578,-0.00763
2.58,-0.03115
2.582,0.00445
2.584,0.01244
2.586,0.00441
2.588,-0.00132
2.59,0
2.592,0.00318
2.594,-0.00127
2.596,-0.00254
2.598,0.00613
2.6,0.01571
2.602,0.003
2.604,0.00754
2.606,0.00572
2.608,0.00563
2.61,0.00145
2.612,-0.00073
2.614,0.00073
2.616,0.00767
2.618,0.0257
2.62,0.03015
2.622,0.00418
2.624,-0.02434
2.626,-0.01998
2.628,-0.01671
2.63,-0.01045
2.632,-0.02343
2.634,-0.03392
2.636,-0.0307
2.638,-0.00808
2.64,-0.00854
2.642,-0.00654
2.644,0.00145
2.646,0.02298
2.648,0.01744
2.65,0.01617
2.652,0.02561
2.654,0.02779
2.656,0.01163
2.658,-0.00145
2.66,-0.00708
2.662,-0.01217
2.664,-0.00686
2.666,0.04432
2.668,0.0525
2.67,0.05268
2.672,0.03942
2.674,0.02289
2.676,0.01789
2.678,-0.00618
2.68,-0.00395
2.682,-0.03688
2.684,-0.09482
2.686,-0.10935
2.688,-0.04428
2.69,0.001
2.692,-0.00218
2.694,0.00836
2.696,0.01113
2.698,0.01562
2.7,0.01281
2.702,0.02271
2.704,0.01226
2.706,-0.00318
2.708,0.0049
2.71,0.01181
2.712,0.03397
2.714,0.06149
2.716,0.05095
2.718,-0.00936
2.72,-0.00318
2.722,0.00354
2.724,0.00799
2.726,0.01163
2.728,0.01926
2.73,0.01471
2.732,-0.01926
2.734,-0.03924
2.736,-0.03597
2.738,-0.03347
2.74,-0.00173
2.742,0.00127
2.744,-0.03542
2.746,-0.02207
2.748,-0.00763
2.75,-0.00073
2.752,0.02012
2.754,0.00436
2.756,0.00454
2.758,0.01562
2.76,0.00695
2.762,0.00272
2.764,0.01844
2.766,0.01789
2.768,-0.01671
2.77,0.01344
2.772,0.01907
2.774,-0.00191
2.776,0.00531
2.778,0.01453
2.78,-0.00218
2.782,-0.00845
2.784,0.01689
2.786,0.00332
2.788,0.01608
2.79,0.01926
2.792,-0.01072
2.794,-0.00745
2.796,0.00118
2.798,0.00023
2.8,0.01176
2.802,0.01181
2.804,0.00472
2.806,0.03124
2.808,0.03006
2.81,0.01476
2.812,-0.00954
2.814,-0.02875
2.816,-0.03052
2.818,-0.0599
2.82,-0.04487
2.822,-0.00645
2.824,0.01807
2.826,-0.01226
2.828,0.00481
2.83,0.00182
2.832,-0.0198
2.834,0.00472
2.836,0.03778
2.838,0.03778
2.84,0.01653
2.842,0.00027
2.844,-0.00309
2.846,0.00999
2.848,0.03233
2.85,-0.01662
2.852,-0.03742
2.854,-0.00926
2.856,-0.01994
2.858,0.00908
2.86,0.01862
2.862,0.01635
2.864,-0.01181
2.866,-0.02252
2.868,-0.00981
2.87,0.01499
2.872,0.03097
2.874,0.00563
2.876,0.01017
2.878,-0.00127
2.88,-0.01708
2.882,-0.01226
2.884,-0.01299
2.886,0.00054
2.888,0.01599
2.89,0.02143
2.892,0.00727
2.894,-0.001
2.896,0.0059
2.898,0.00713
2.9,0.02343
2.902,0.04069
2.904,0.03733
2.906,0.01326
2.908,-0.01907
2.91,-0.03678
2.912,-0.01676
2.914,-0.01408
2.916,-0.01362
2.918,-0.00926
2.92,0.00477
2.922,-0.00018
2.924,-0.00708
2.926,0.01362
2.928,0.00736
2.93,0.0149
2.932,0.00445
2.934,-0.00372
2.936,-0.00381
2.938,0.00509
2.94,0.00817
2.942,0.00272
2.944,0.00654
2.946,0.01635
2.948,0.00618
2.95,0.00881
2.952,0.02557
2.954,0.00563
2.956,0.03197
2.958,0.08374
2.96,0.06648
2.962,0.00899
2.964,0.02589
2.966,0.05245
2.968,0.01199
2.97,-0.11299
2.972,-0.17893
2.974,-0.15327
2.976,-0.08592
2.978,-0.0609
2.98,-0.04214
2.982,0.02343
2.984,0.02216
2.986,0.06712
2.988,0.06912
2.99,0.05922
2.992,0.09237
2.994,0.08283
2.996,0.05014
2.998,0.02797
3,0.03787
3.002,0.03034
3.004,0.02166
3.006,-0.05549
3.008,-0.16144
3.01,-0.09387
3.012,-0.03515
3.014,-0.02425
3.016,-0.01735
3.018,-0.02552
3.02,-0.00545
3.022,-0.02398
3.024,0.00572
3.026,0.03524
3.028,0.03633
3.03,0.01589
3.032,-0.00073
3.034,-0.00245
3.036,0.0074
3.038,0.03851
3.04,0.04296
3.042,0.04087
3.044,0.03361
3.046,0.01608
3.048,0.01762
3.05,0.01962
3.052,0.00091
3.054,-0.00781
3.056,0.01544
3.058,-0.01235
3.06,-0.02525
3.062,0.00277
3.064,-0.02089
3.066,-0.00695
3.068,0.03106
3.07,0.03052
3.072,0.01253
3.074,-0.00282
3.076,-0.03488
3.078,-0.06149
3.08,-0.0208
3.082,0.01526
3.084,0.01599
3.086,0.02357
3.088,0.03379
3.09,0.02707
3.092,0.0129
3.094,-0.04619
3.096,-0.03706
3.098,0.00899
3.1,0.01054
3.102,0.04995
3.104,0.04668
3.106,0.04378
3.108,0.03624
3.11,0.04124
3.112,-0.00527
3.114,-0.07775
3.116,-0.1411
3.118,-0.09192
3.12,0.00309
3.122,0.04632
3.124,0.03211
3.126,0.04033
3.128,0.06467
3.13,0.03942
3.132,-0.0109
3.134,-0.08456
3.136,-0.05086
3.138,-0.02816
3.14,-0.08383
3.142,-0.03397
3.144,0.03942
3.146,0.04855
3.148,0.04832
3.15,0.02743
3.152,0.01589
3.154,0.02198
3.156,0.00091
3.158,0.03233
3.16,0.04668
3.162,0.06249
3.164,0.05159
3.166,0.00813
3.168,0.00527
3.17,-0.00136
3.172,-0.03429
3.174,-0.05631
3.176,-0.04619
3.178,-0.10708
3.18,-0.09718
3.182,-0.01848
3.184,0.03351
3.186,0.03329
3.188,0.03688
3.19,0.05363
3.192,-0.004
3.194,-0.04033
3.196,-0.01962
3.198,-0.00091
3.2,0.03379
3.202,0.00636
3.204,-0.03737
3.206,-0.00327
3.208,0.00127
3.21,-0.0346
3.212,-0.02298
3.214,0.04051
3.216,0.09146
3.218,0.09737
3.22,0.06835
3.222,0.04105
3.224,0.01163
3.226,0.02271
3.228,-0.05395
3.23,-0.06708
3.232,-0.04559
3.234,-0.00322
3.236,0.02507
3.238,-0.01985
3.24,-0.0247
3.242,-0.06485
3.244,-0.05958
3.246,-0.02688
3.248,-0.01562
3.25,0.0188
3.252,0.02843
3.254,0.0287
3.256,0.02579
3.258,0.02143
3.26,0.02856
3.262,0.04723
3.264,0.05713
3.266,-0.01217
3.268,-0.01989
3.27,-0.01817
3.272,-0.01381
3.274,0.0436
3.276,0.04805
3.278,0.03111
3.28,0.05704
3.282,0.05159
3.284,0.05195
3.286,0.03933
3.288,0.06621
3.29,0.07638
3.292,0.00345
3.294,-0.09223
3.296,-0.23606
3.298,-0.17416
3.3,-0.11807
3.302,-0.08193
3.304,-0.03442
3.306,-0.00327
3.308,0.00327
3.31,0.02725
3.312,-0.01526
3.314,0.002
3.316,0.01944
3.318,0.02116
3.32,0.03524
3.322,0.06539
3.324,0.07094
3.326,0.08692
3.328,0.09973
3.33,0.21435
3.332,0.27575
3.334,0.25032
3.336,0.18924
3.338,0.01144
3.34,-0.15468
3.342,-0.25686
3.344,-0.51735
3.346,-0.51008
3.348,-0.22543
3.35,-0.0545
3.352,0.0614
3.354,0.12039
3.356,0.16249
3.358,0.12788
3.36,0.04982
3.362,0.08901
3.364,0.0218
3.366,-0.12897
3.368,-0.09446
3.37,0.00672
3.372,0.05395
3.374,0.0723
3.376,0.08292
3.378,0.06131
3.38,0.0525
3.382,0.05867
3.384,0.04405
3.386,-0.02035
3.388,-0.07793
3.39,-0.05849
3.392,-0.04995
3.394,0.003
3.396,-0.00554
3.398,-0.0049
3.4,0.03896
3.402,0.03506
3.404,0.04891
3.406,-0.01771
3.408,-0.02934
3.41,-0.0297
3.412,0.02035
3.414,0.04623
3.416,-0.00336
3.418,-0.01526
3.42,0.02797
3.422,0.01163
3.424,-0.00263
3.426,-0.00936
3.428,0.02761
3.43,0.0436
3.432,0.04868
3.434,0.04055
3.436,0.07239
3.438,0.07738
3.44,0.0158
3.442,-0.02543
3.444,0.01058
3.446,0.0723
3.448,0.01163
3.45,-0.01599
3.452,-0.06394
3.454,-0.11907
3.456,-0.09519
3.458,-0.101
3.46,-0.14668
3.462,-0.14369
3.464,-0.12625
3.466,-0.0693
3.468,0.00032
3.47,0.08574
3.472,0.11194
3.474,0.11916
3.476,0.16349
3.478,0.15949
3.48,0.17584
3.482,0.1539
3.484,0.12271
3.486,0.10136
3.488,0.08719
3.49,0.10999
3.492,0.03015
3.494,-0.08937
3.496,-0.28447
3.498,-0.36594
3.5,-0.30027
3.502,-0.2
3.504,-0.16185
3.506,-0.10627
3.508,0.01671
3.51,-0.01589
3.512,0.099
3.514,0.10754
3.516,0.03824
3.518,0.04237
3.52,0.06122
3.522,0.02107
3.524,-0.0851
3.526,-0.06985
3.528,0.00182
3.53,0.07648
3.532,0.1361
3.534,0.10681
3.536,0.0723
3.538,0.07216
3.54,0.09155
3.542,0.00913
3.544,-0.00649
3.546,-0.05586
3.548,-0.0366
3.55,0.01035
3.552,-0.00618
3.554,-0.02293
3.556,0.00618
3.558,0.03329
3.56,0.00926
3.562,-0.00799
3.564,0.01272
3.566,0.01331
3.568,0.01253
3.57,0.01431
3.572,0.01362
3.574,0.0193
3.576,0.01235
3.578,-0.0134
3.58,-0.00509
3.582,0.03642
3.584,0.02548
3.586,-0.00908
3.588,0.01608
3.59,-0.03306
3.592,0.01181
3.594,0.01508
3.596,0.01135
3.598,0.01344
3.6,0.02961
3.602,0.06049
3.604,0.05177
3.606,0.01789
3.608,-0.10091
3.61,-0.03479
3.612,-0.03306
3.614,0.02929
3.616,0.0307
3.618,-0.0515
3.62,-0.102
3.622,-0.12271
3.624,-0.17888
3.626,-0.17893
3.628,-0.02634
3.63,0.05241
3.632,0.13043
3.634,0.18451
3.636,0.16803
3.638,0.1089
3.64,0.11262
3.642,0.04923
3.644,-0.01417
3.646,-0.00463
3.648,-0.0129
3.65,-0.01199
3.652,-0.08683
3.654,-0.12202
3.656,-0.17003
3.658,-0.1297
3.66,-0.08574
3.662,-0.06385
3.664,0.00854
3.666,-0.01231
3.668,-0.04505
3.67,0.0149
3.672,0.04559
3.674,0.05886
3.676,0.06321
3.678,0.05395
3.68,0.0515
3.682,0.04015
3.684,0.02979
3.686,-0.01253
3.688,0.03778
3.69,0.09746
3.692,0.05232
3.694,0.03379
3.696,0.0411
3.698,0.05422
3.7,0.03329
3.702,0.1148
3.704,0.06104
3.706,-0.01308
3.708,-0.07148
3.71,-0.07802
3.712,-0.18056
3.714,-0.19655
3.716,-0.13987
3.718,0.02162
3.72,0.06866
3.722,0.05014
3.724,0.08974
3.726,0.06953
3.728,-0.004
3.73,-0.00908
3.732,0.0436
3.734,0.02143
3.736,0.07348
3.738,0.06658
3.74,0.07993
3.742,0.08792
3.744,-0.04741
3.746,-0.00163
3.748,-0.02389
3.75,-0.0663
3.752,-0.03647
3.754,-0.11916
3.756,-0.07275
3.758,-0.0332
3.76,-0.07947
3.762,0.00354
3.764,-0.03297
3.766,-0.04995
3.768,0.02734
3.77,0.06303
3.772,0.02616
3.774,0.07484
3.776,0.09446
3.778,0.0782
3.78,0.0129
3.782,-0.02816
3.784,0.05831
3.786,0.09628
3.788,0.01708
3.79,-0.05995
3.792,0.01853
3.794,0.13261
3.796,0.19328
3.798,0.12902
3.8,-0.07829
3.802,-0.23733
3.804,-0.20999
3.806,-0.38329
3.808,-0.54677
3.81,-0.23179
3.812,0.0723
3.814,0.21344
3.816,0.19364
3.818,0.15885
3.82,0.12852
3.822,-0.01962
3.824,-0.13824
3.826,-0.00545
3.828,0.08874
3.83,0.11816
3.832,0.05995
3.834,0.05886
3.836,0.0554
3.838,0.03124
3.84,0.0832
3.842,0.10291
3.844,0.10954
3.846,0.15377
3.848,0.16426
3.85,0.11707
3.852,-0.03742
3.854,-0.11262
3.856,-0.1663
3.858,-0.29151
3.86,-0.34537
3.862,-0.24777
3.864,-0.05518
3.866,0.09737
3.868,0.13061
3.87,0.05795
3.872,0.00549
3.874,0.04541
3.876,0.08065
3.878,0.06903
3.88,0.03361
3.882,0.02198
3.884,0.02402
3.886,0.02688
3.888,0.01962
3.89,0.0465
3.892,0.09782
3.894,0.04914
3.896,0.03488
3.898,0.07847
3.9,0.04187
3.902,-0.04491
3.904,-0.05922
3.906,-0.04482
3.908,-0.08919
3.91,-0.04051
3.912,-0.07266
3.914,-0.10763
3.916,-0.13297
3.918,-0.05658
3.92,0.05522
3.922,0.04741
3.924,0.03815
3.926,0.07248
3.928,0.07284
3.93,0.05686
3.932,0.03342
3.934,-0.06521
3.936,-0.05886
3.938,-0.00145
3.94,0.01035
3.942,0.01403
3.944,-0.0376
3.946,-0.02416
3.948,0.02148
3.95,0.05068
3.952,0.00763
3.954,0.07007
3.956,0.07375
3.958,0.14541
3.96,0.23692
3.962,0.29173
3.964,0.26004
3.966,0.16058
3.968,0.11771
3.97,-0.15023
3.972,-0.4307
3.974,-0.58092
3.976,-0.63338
3.978,-0.32516
3.98,-0.06203
3.982,0.07829
3.984,0.13951
3.986,0.05704
3.988,0.04705
3.99,0.08665
3.992,0.15232
3.994,0.07738
3.996,-0.05431
3.998,-0.13024
4,-0.06031
4.002,0.04982
4.004,0.04114
4.006,0.0941
4.008,0.13152
4.01,0.19428
4.012,0.17584
4.014,0.23778
4.016,0.17193
4.018,0.06662
4.02,-0.10009
4.022,-0.4
4.024,-0.21907
4.026,0.01435
4.028,-0.00572
4.03,0.06067
4.032,0.03361
4.034,0.002
4.036,-0.105
4.038,-0.13987
4.04,0.00218
4.042,0.13806
4.044,0.13361
4.046,0.0297
4.048,0.00327
4.05,-0.08974
4.052,-0.11717
4.054,-0.01217
4.056,-0.03388
4.058,-0.01435
4.06,0.01876
4.062,0.01726
4.064,0.05041
4.066,0.02507
4.068,0.01617
4.07,0.04759
4.072,0.04173
4.074,0.05404
4.076,0.04237
4.078,0.01553
4.08,-0.00708
4.082,-0.02366
4.084,0.02743
4.086,0.05459
4.088,0.17021
4.09,0.10254
4.092,0.07121
4.094,-0.03669
4.096,-0.07902
4.098,-0.09074
4.1,-0.1346
4.102,-0.11789
4.104,-0.05976
4.106,-0.04387
4.108,-0.09809
4.11,-0.09269
4.112,0.06194
4.114,0.10504
4.116,0.04578
4.118,0.05795
4.12,0.04042
4.122,0.0738
4.124,0.15059
4.126,0.15227
4.128,0.22616
4.13,0.12343
4.132,0.04614
4.134,-0.11017
4.136,-0.36035
4.138,-0.33483
4.14,-0.27375
4.142,-0.3039
4.144,-0.15418
4.146,-0.00173
4.148,0.0861
4.15,0.10354
4.152,0.1119
4.154,0.15622
4.156,0.16639
4.158,0.06866
4.16,0.03742
4.162,0.01853
4.164,-0.17302
4.166,-0.18338
4.168,-0.01381
4.17,0.0658
4.172,0.02916
4.174,0.01013
4.176,0.02688
4.178,0.11044
4.18,0.12752
4.182,0.10863
4.184,0.11626
4.186,0.05241
4.188,0.05631
4.19,0.07157
4.192,0.05604
4.194,0.00263
4.196,-0.08338
4.198,-0.12198
4.2,-0.08302
4.202,-0.08701
4.204,-0.04628
4.206,0.01317
4.208,-0.00727
4.21,-0.12334
4.212,-0.07175
4.214,0.0149
4.216,0.02648
4.218,0.04142
4.22,0.10608
4.222,0.0579
4.224,-0.03651
4.226,-0.01371
4.228,0.04619
4.23,0.07266
4.232,0.01208
4.234,-0.00145
4.236,0.09332
4.238,0.21925
4.24,0.15304
4.242,0.09332
4.244,0.06876
4.246,0.00254
4.248,-0.23224
4.25,-0.27393
4.252,-0.19855
4.254,-0.2703
4.256,-0.24405
4.258,-0.09101
4.26,0.13451
4.262,0.19836
4.264,0.25032
4.266,0.16694
4.268,-0.05777
4.27,-0.23524
4.272,-0.18093
4.274,-0.07212
4.276,-0.00127
4.278,0.07884
4.28,0.15994
4.282,0.16598
4.284,0.09051
4.286,0.08538
4.288,0.13792
4.29,0.04255
4.292,-0.08828
4.294,-0.06612
4.296,-0.0792
4.298,-0.17638
4.3,-0.20445
4.302,-0.03706
4.304,0.08047
4.306,0.1515
4.308,0.17884
4.31,0.13978
4.312,0.02234
4.314,0.12062
4.316,0.18138
4.318,0.02888
4.32,-0.1059
4.322,-0.01708
4.324,-0.09873
4.326,-0.35631
4.328,-0.4772
4.33,-0.23451
4.332,-0.08883
4.334,0.07548
4.336,0.06231
4.338,0.08592
4.34,0.10018
4.342,0.11272
4.344,0.0941
4.346,0.08846
4.348,0.0772
4.35,0.07066
4.352,0.08429
4.354,0.12716
4.356,0.12643
4.358,0.03451
4.36,-0.02107
4.362,-0.08392
4.364,-0.1208
4.366,-0.12311
4.368,-0.03792
4.37,0.0683
4.372,0.01444
4.374,-0.0158
4.376,-0.00936
4.378,-0.00127
4.38,0.06231
4.382,0.08111
4.384,0.12352
4.386,0.04977
4.388,0.04364
4.39,-0.04287
4.392,-0.06912
4.394,0.03642
4.396,-0.02398
4.398,-0.11807
4.4,-0.03193
4.402,0.00309
4.404,-0.00763
4.406,-0.0485
4.408,0.01222
4.41,-0.02098
4.412,0.01762
4.414,-0.01417
4.416,-0.03651
4.418,-0.0079
4.42,0.02107
4.422,0.03311
4.424,0.09891
4.426,0.19219
4.428,0.23633
4.43,0.23442
4.432,0.19764
4.434,-0.01326
4.436,-0.3
4.438,-0.54369
4.44,-0.35091
4.442,-0.13006
4.444,-0.10854
4.446,-0.10082
4.448,-0.04423
4.45,-0.06235
4.452,-0.00976
4.454,0.0173
4.456,0.09519
4.458,0.14514
4.46,0.20572
4.462,0.23479
4.464,0.15767
4.466,0.10027
4.468,0.01362
4.47,-0.06948
4.472,-0.09273
4.474,-0.09809
4.476,-0.0198
4.478,0.03969
4.48,0.05758
4.482,0.0129
4.484,-0.00581
4.486,-0.03996
4.488,-0.02847
4.49,0.00073
4.492,0.01617
4.494,0.02089
4.496,0.05731
4.498,0.05259
4.5,0.03229
4.502,0.03288
4.504,-0.0069
4.506,-0.05195
4.508,0.01144
4.51,0.0198
4.512,-0.03697
4.514,0.00618
4.516,-0.02016
4.518,0.05282
4.52,0.07302
4.522,-0.01653
4.524,-0.04419
4.526,-0.02875
4.528,-0.02807
4.53,-0.06898
4.532,-0.05522
4.534,-0.02361
4.536,-0.01194
4.538,0.01671
4.54,0.03206
4.542,0.01889
4.544,0.03678
4.546,0.0396
4.548,0.02679
4.55,0.01008
4.552,-0.01144
4.554,-0.01408
4.556,-0.00836
4.558,-0.0129
4.56,-0.00327
4.562,-0.00917
4.564,-0.00018
4.566,-0.02679
4.568,0.01294
4.57,0.05114
4.572,0.03342
4.574,0.00454
4.576,-0.00554
4.578,-0.00345
4.58,0.01576
4.582,0.06553
4.584,0.12025
4.586,0.1406
4.588,0.11008
4.59,0.01381
4.592,-0.03397
4.594,-0.05359
4.596,-0.12207
4.598,-0.27647
4.6,-0.35695
4.602,-0.16017
4.604,0.04941
4.606,0.12298
4.608,0.12389
4.61,0.08556
4.612,0.01975
4.614,-0.01081
4.616,-0.11172
4.618,-0.09301
4.62,-0.05268
4.622,0.02302
4.624,0.08619
4.626,0.10736
4.628,0.06303
4.63,0.01907
4.632,0.00577
4.634,0.01535
4.636,0.07084
4.638,0.0544
4.64,0.05613
4.642,0.03906
4.644,0.02884
4.646,-0.00636
4.648,-0.02493
4.65,-0.02993
4.652,-0.01045
4.654,-0.02906
4.656,0.0129
4.658,0.03124
4.66,0.00413
4.662,-0.01589
4.664,-0.02089
4.666,-0.00708
4.668,-0.00708
4.67,-0.01094
4.672,-0.00272
4.674,0.0069
4.676,0.01181
4.678,-0.01054
4.68,-0.01308
4.682,0.00799
4.684,0.00313
4.686,0.003
4.688,0.02411
4.69,0.04396
4.692,0.02125
4.694,-0.01599
4.696,-0.07557
4.698,-0.00209
4.7,-0.00204
4.702,-0.01281
4.704,-0.00917
4.706,0.00032
4.708,0.01453
4.71,0.01371
4.712,0.00636
4.714,-0.00036
4.716,0.00418
4.718,0.02044
4.72,0.00999
4.722,0.01144
4.724,-0.00254
4.726,0.00645
4.728,0.0099
4.73,0.01644
4.732,-0.01267
4.734,-0.05377
4.736,-0.03324
4.738,-0.02035
4.74,-0.00945
4.742,0.01453
4.744,0.01471
4.746,0.02348
4.748,0.02734
4.75,0.00322
4.752,-0.0069
4.754,-0.00527
4.756,0.00259
4.758,0.00627
4.76,0.01453
4.762,0.01553
4.764,0.00218
4.766,-0.00182
4.768,-0.00454
4.77,-0.00291
4.772,0.01562
4.774,0.01826
4.776,-0.00036
4.778,-0.00236
4.78,-0.00291
4.782,0.00436
4.784,-0.00781
4.786,-0.00904
4.788,0.01689
4.79,0.00318
4.792,-0.00372
4.794,0.00736
4.796,0.01635
4.798,0.00618
4.8,-0.01744
4.802,-0.00036
4.804,-0.01717
4.806,0.00027
4.808,0.00568
4.81,-0.00872
4.812,0.005
4.814,0.00945
4.816,0.01317
4.818,0.02625
4.82,0.01126
4.822,0.00114
4.824,-0.01717
4.826,-0.01035
4.828,0.00277
4.83,0.00182
4.832,0.00223
4.834,0.00272
4.836,0.01635
4.838,0.04578
4.84,-0.02443
4.842,-0.03633
4.844,-0.00145
4.846,0.0139
4.848,0.01689
4.85,0.02334
4.852,0.03429
4.854,0.01753
4.856,-0.03815
4.858,-0.07366
4.86,-0.04773
4.862,-0.03061
4.864,-0.02416
4.866,-0.00527
4.868,0.00127
4.87,0.00727
4.872,0.01476
4.874,0.01726
4.876,0.01344
4.878,0.01381
4.88,0.0188
4.882,0.01826
4.884,0.01453
4.886,0.0139
4.888,0.01353
4.89,0.01344
4.892,0.004
4.894,0.00654
4.896,0.01294
4.898,0.01226
4.9,0.01135
4.902,0.01708
4.904,0.0059
4.906,0.00195
4.908,-0.00549
4.91,0.00518
4.912,0.04741
4.914,0.03996
4.916,0.03983
4.918,0.01944
4.92,-0.02316
4.922,-0.08556
4.924,-0.10781
4.926,-0.10409
4.928,-0.04541
4.93,-0.00581
4.932,0.01208
4.934,0.01962
4.936,0.0247
4.938,0.0178
4.94,0.01362
4.942,0.01244
4.944,0.01608
4.946,0.01971
4.948,0.01708
4.95,0.00563
4.952,0.00963
4.954,0.01562
4.956,0.01126
4.958,0.00799
4.96,0.00945
4.962,0.01508
4.964,0.00699
4.966,-0.00681
4.968,0.002
4.97,0.01671
4.972,0.00336
4.974,-0.01712
4.976,-0.00036
4.978,0.00463
4.98,0.00409
4.982,0.00209
4.984,-0.00054
4.986,-0.00563
4.988,-0.00418
4.99,0.00054
4.992,0.00218
4.994,0.00577
4.996,0.00227
4.998,0.00799
5,0.0149
5.002,-0.00908
5.004,-0.00413
5.006,0.00781
5.008,0.00545
5.01,0.00236
5.012,-0.00064
5.014,0.00854
5.016,-0.00681
5.018,0.01235
5.02,-0.00109
5.022,-0.00173
5.024,0.00191
5.026,-0.00736
5.028,0.00581
5.03,-0.01126
5.032,-0.00727
5.034,-0.00064
5.036,0.00745
5.038,0.00454
5.04,-0.00554
5.042,-0.00681
5.044,-0.00127
5.046,0.00372
5.048,0.00872
5.05,0.002
5.052,-0.00036
5.054,0.001
5.056,0.00386
5.058,0.00372
5.06,0.00436
5.062,0.00345
5.064,0.00291
5.066,0.00422
5.068,0.00436
5.07,0.00254
5.072,0.00109
5.074,-0.00073
5.076,0.00745
5.078,0.01276
5.08,0.00327
5.082,-0.00663
5.084,0.00032
5.086,-0.01235
5.088,-0.00727
5.09,0.00422
5.092,0.00509
5.094,0.00981
5.096,0.00091
5.098,0.00127
5.1,-0.00127
5.102,-0.00304
5.104,-0.00218
5.106,-0.00086
5.108,0.00218
5.11,0.01308
5.112,0.00963
5.114,0.01063
5.116,0.00509
5.118,0.00073
5.12,0.00372
5.122,-0.00663
5.124,-0.01817
5.126,-0.01199
5.128,-0.00345
5.13,-0.002
5.132,-0.00109
5.134,0.00277
5.136,0.0015
5.138,-0.00036
5.14,0.00232
5.142,0.01004
5.144,0.0069
5.146,0.00559
5.148,0.004
5.15,0.00363
5.152,0.01312
5.154,0.01721
5.156,0.01035
5.158,-0.00727
5.16,-0.00549
5.162,-0.003
5.164,0.00073
5.166,0.00527
5.168,-0.00572
5.17,-0.00036
5.172,0.0049
5.174,0.00027
5.176,0.00454
5.178,0.00073
5.18,-0.00391
5.182,-0.00073
5.184,0.00236
5.186,0.00381
5.188,0.0109
5.19,0.01435
5.192,0.00908
5.194,0.0049
5.196,0.00227
5.198,-0.00064
5.2,-0.00781
5.202,-0.00618
5.204,-0.00204
5.206,-0.00436
5.208,0.00272
5.21,-0.00563
5.212,-0.0069
5.214,-0.00908
5.216,-0.00545
5.218,0.00191
5.22,0.00509
5.222,0.0079
5.224,0.01008
5.226,0.01417
5.228,0.01235
5.23,0.01599
5.232,0.00545
5.234,-0.00054
5.236,0.00095
5.238,0.00291
5.24,0.00318
5.242,-0.00509
5.244,-0.00086
5.246,-0.00209
5.248,-0.01045
5.25,-0.00036
5.252,0.00091
5.254,-0.00109
5.256,0.00268
5.258,-0.00036
5.26,-0.00263
5.262,0.00073
5.264,0.01244
5.266,0.00291
5.268,-0.00136
5.27,0.00772
5.272,0.01099
5.274,-0.00427
5.276,-0.00954
5.278,-0.01526
5.28,-0.00599
5.282,0.00345
5.284,0.00609
5.286,0.01376
5.288,0.00681
5.29,-0.00363
5.292,-0.00445
5.294,0.00799
5.296,0.00926
5.298,0.00127
5.3,0.00073
5.302,0.00645
5.304,-0.00745
5.306,-0.00082
5.308,0.00799
5.31,-0.01017
5.312,0.00604
5.314,0.00391
5.316,0.00967
5.318,0.00836
5.32,-0.01944
5.322,-0.01281
5.324,-0.00427
5.326,0.00581
5.328,0.00218
5.33,0.01035
5.332,-0.00668
5.334,0.00781
5.336,0.00304
5.338,-0.01653
5.34,-0.00618
5.342,0.00404
5.344,0.00808
5.346,0.00708
5.348,9.00E-05
5.35,0.01035
5.352,-0.00127
5.354,0.01099
5.356,-0.00109
5.358,0.01689
5.36,0.01644
5.362,-0.00109
5.364,0
5.366,-0.00245
5.368,-0.00109
5.37,0.0129
5.372,0.00372
5.374,0.00218
5.376,0.00763
5.378,0.00332
5.38,-0.00926
5.382,-0.0074
5.384,0.00581
5.386,0.00345
5.388,-0.00327
5.39,-0.00854
5.392,-0.00436
5.394,0.00127
5.396,0.00182
5.398,-0.00345
5.4,-0.00209
5.402,-0.0074
5.404,-0.00581
5.406,0.01035
5.408,0.00908
5.41,0.00722
5.412,0.00436
5.414,0.01417
5.416,0.02053
5.418,0.01426
5.42,0.00745
5.422,-0.00036
5.424,-0.00763
5.426,-0.00345
5.428,-0.00136
5.43,0.00804
5.432,0.01308
5.434,9.00E-05
5.436,-0.00836
5.438,0.00309
5.44,0.00568
5.442,-0.00527
5.444,0.002
5.446,-0.00354
5.448,-0.00563
5.45,0
5.452,0.00409
5.454,0.00422
5.456,-0.00645
5.458,-0.00527
5.46,0
5.462,0.00054
5.464,-0.00036
5.466,-0.00091
5.468,-0.00036
5.47,0.00091
5.472,0.00254
5.474,0.0089
5.476,-0.00054
5.478,-0.00277
5.48,-0.00182
5.482,0.00127
5.484,0.00154
5.486,0.00027
5.488,-0.00114
5.49,-0.00073
5.492,0.00227
5.494,0.01058
5.496,0.01962
5.498,0.01762
5.5,0.01535
5.502,0.00581
5.504,0.003
5.506,-0.00218
5.508,-0.004
5.51,0.00077
5.512,0.00032
5.514,-0.00209
5.516,-0.00495
5.518,-0.00436
5.52,0.00186
5.522,-0.00027
5.524,0.00114
5.526,0.00182
5.528,0.00186
5.53,0.00186
5.532,0.00159
5.534,0.00145
5.536,0.00563
5.538,0.00163
5.54,-0.00209
5.542,-0.00218
5.544,0.00018
5.546,0.00154
5.548,-0.00254
5.55,0
5.552,-0.00272
5.554,-0.00754
5.556,-0.00822
5.558,0.00027
5.56,0.00054
5.562,0.00654
5.564,0.01213
5.566,0.01762
5.568,0.02107
5.57,0.01362
5.572,0.01362
5.574,0.01276
5.576,0.00082
5.578,-0.00077
5.58,0.00059
5.582,0.00154
5.584,-0.004
5.586,-0.00599
5.588,-0.00581
5.59,-0.00972
5.592,-0.00872
5.594,-0.00572
5.596,-0.00327
5.598,-0.00436
5.6,0.005
5.602,0.0059
5.604,0.01571
5.606,0.02257
5.608,0.01176
5.61,0.00618
5.612,-0.005
5.614,-0.00345
5.616,-0.002
5.618,-0.00245
5.62,-0.00145
5.622,0.00341
5.624,0.01771
5.626,-0.00645
5.628,-0.01789
5.63,-0.00291
5.632,0.00509
5.634,0.00559
5.636,0.00545
5.638,0.00218
5.64,-0.00209
5.642,-0.00436
5.644,-0.00182
5.646,0.00145
5.648,-0.00036
5.65,-0.00082
5.652,0.00032
5.654,0.00363
5.656,0.00091
5.658,0.00309
5.66,0.00363
5.662,0.00381
5.664,0.00372
5.666,0.00209
5.668,0.00182
5.67,0.00163
5.672,0.00095
5.674,0.00327
5.676,-0.00127
5.678,0.00091
5.68,-0.00154
5.682,0.00073
5.684,-0.00054
5.686,0
5.688,0.01381
5.69,0.00836
5.692,-0.00481
5.694,-0.01835
5.696,-0.00836
5.698,0.00163
5.7,0.00654
5.702,0.00545
5.704,0
5.706,0.004
5.708,0.0149
5.71,0.01408
5.712,0.00999
5.714,0.003
5.716,0.01176
5.718,-0.00363
5.72,-0.00799
5.722,-0.00436
5.724,-0.00173
5.726,0.00109
5.728,-0.00241
5.73,-0.00254
5.732,-0.00054
5.734,0.01717
5.736,-0.00227
5.738,-0.00413
5.74,0.00291
5.742,-0.00145
5.744,0.00073
5.746,0.00272
5.748,0.01054
5.75,0.00254
5.752,-0.00781
5.754,0.00345
5.756,0.00272
5.758,-0.00064
5.76,-0.00572
5.762,0.00263
5.764,0.01017
5.766,0.00722
5.768,0.00363
5.77,0.00064
5.772,-0.00091
5.774,0.002
5.776,0.00581
5.778,-0.00182
5.78,0.00445
5.782,0.00559
5.784,-0.00236
5.786,-0.00136
5.788,-0.00082
5.79,0.0049
5.792,0.00636
5.794,0.00436
5.796,0.00182
5.798,0.00082
5.8,-0.00027
5.802,0.00218
5.804,0.00145
5.806,0.00073
5.808,0.01017
5.81,-0.00509
5.812,-0.004
5.814,0
5.816,0.01072
5.818,0.00799
5.82,-0.00145
5.822,-0.00454
5.824,0.00082
5.826,-0.00173
5.828,0.01017
5.83,-0.00627
5.832,-0.00545
5.834,0.00109
5.836,0.00018
5.838,9.00E-05
5.84,0.00509
5.842,0.00727
5.844,0.00109
5.846,-0.00023
5.848,0
5.85,0.00518
5.852,0.00681
5.854,0.00681
5.856,-0.00154
5.858,-0.00127
5.86,0.00027
5.862,0.00654
5.864,0
5.866,0.00223
5.868,0.00718
5.87,0.02148
5.872,-0.01163
5.874,-0.00581
5.876,-0.00254
5.878,-0.00259
5.88,-0.00073
5.882,0.00145
5.884,0.00109
5.886,0.00136
5.888,0.00718
5.89,0.02216
5.892,0.00454
5.894,-0.01144
5.896,-0.00727
5.898,0.00745
5.9,-0.00472
5.902,-0.00136
5.904,0.00581
5.906,0.0084
5.908,0.00381
5.91,-0.00282
5.912,-0.00291
5.914,0.00636
5.916,0.00472
5.918,0.00509
5.92,0.00318
5.922,-0.00282
5.924,-0.00109
5.926,0.00145
5.928,0.00027
5.93,0.00145
5.932,0.00704
5.934,0.003
5.936,-0.004
5.938,-0.00245
5.94,0.00763
5.942,0.00627
5.944,0.00313
5.946,0.00291
5.948,-0.00182
5.95,-0.00104
5.952,0.00163
5.954,0.00454
5.956,0.00291
5.958,0.00073
5.96,0.0015
5.962,0.00563
5.964,0.00509
5.966,0.00327
5.968,0.00082
5.97,0.00109
5.972,0.00032
5.974,0.00799
5.976,0.00445
5.978,-0.00245
5.98,-0.00563
5.982,0.00082
5.984,0.00077
5.986,-0.00073
5.988,0.00672
5.99,0.004
5.992,0.00091
5.994,-0.00173
5.996,-0.00304
5.998,0.00082
6,0.00336
6.002,0.003
6.004,0.004
6.006,0.00145
6.008,0.00182
6.01,0.00163
6.012,0.00236
6.014,0.00127
6.016,0.00218
6.018,0.00227
6.02,0.00154
6.022,0.00218
6.024,0.00381
6.026,0.00218
6.028,-0.00109
6.03,0.00145
6.032,0.00182
6.034,0.00527
6.036,0.00209
6.038,0.00032
6.04,0
6.042,0.00182
6.044,0.00581
6.046,0.0035
6.048,-0.00549
6.05,0.00091
6.052,0.00145
6.054,0.00032
6.056,0.00236
6.058,0.00436
6.06,0.00254
6.062,0.00223
6.064,0.00908
6.066,0.0059
6.068,-0.00245
6.07,-0.00727
6.072,-0.00036
6.074,-0.00082
6.076,-0.004
6.078,-0.00091
6.08,0.00945
6.082,0.00845
6.084,0.00618
6.086,0.00422
6.088,-0.004
6.09,-0.00082
6.092,-0.002
6.094,0.00145
6.096,0.00345
6.098,0.00218
6.1,0.00227
6.102,0.00272
6.104,0.00191
6.106,0.00468
6.108,0.00454
6.11,0.01771
6.112,-0.00627
6.114,-0.003
6.116,-0.00272
6.118,0.00145
6.12,0.00032
6.122,-0.00309
6.124,0.00118
6.126,0.00114
6.128,0.00436
6.13,0.01108
6.132,-0.00708
6.134,-0.00054
6.136,0.01108
6.138,-0.00263
6.14,-0.00291
6.142,0.00018
6.144,0.00413
6.146,0.00354
6.148,0.00232
6.15,0.00363
6.152,0.02325
6.154,0.01626
6.156,-0.02216
6.158,-0.0158
6.16,0.00186
6.162,-0.00291
6.164,0.00418
6.166,0.00018
6.168,0.00345
6.17,-0.00209
6.172,0.00082
6.174,0.00191
6.176,0.00636
6.178,0.00781
6.18,0.00236
6.182,0.00032
6.184,0.00527
6.186,0.01063
6.188,0.00872
6.19,0.00436
6.192,-0.01163
6.194,-0.00572
6.196,-0.00027
6.198,0.00191
6.2,0.00772
6.202,0.00527
6.204,0.00032
6.206,-0.00168
6.208,-0.00291
6.21,-0.00054
6.212,0.00254
6.214,0.00073
6.216,0.00318
6.218,0.00609
6.22,0.00445
6.222,0.00136
6.224,0.00186
6.226,0.00091
6.228,0.00127
6.23,0.00163
6.232,9.00E-05
6.234,0.00109
6.236,0.00454
6.238,0.00509
6.24,-0.00018
6.242,0.00327
6.244,0.00436
6.246,0.00077
6.248,-0.00104
6.25,-0.00109
6.252,0.00218
6.254,0.00109
6.256,0.00309
6.258,0.00073
6.26,0.00145
6.262,0.00218
6.264,0.005
6.266,0.00445
6.268,0.00145
6.27,-0.00154
6.272,-0.00699
6.274,0.00627
6.276,0.01417
6.278,0.01308
6.28,0.00636
6.282,-0.00981
6.284,-0.01435
6.286,0.0277
6.288,-0.00064
6.29,-0.03388
6.292,-0.01385
6.294,-0.00173
6.296,0.005
6.298,0.00545
6.3,0.00481
6.302,0.00613
6.304,0.004
6.306,0.00559
6.308,0.00232
6.31,0.003
6.312,0.00618
6.314,0.01322
6.316,-0.00395
6.318,-0.002
6.32,0.00345
6.322,0.004
6.324,0.00345
6.326,0.00109
6.328,0.00182
6.33,0.00195
6.332,0.00254
6.334,0.00313
6.336,0.00218
6.338,0.00218
6.34,0.002
6.342,0.00218
6.344,0.00109
6.346,0.00218
6.348,-0.001
6.35,0.00073
6.352,0.00332
6.354,0.00436
6.356,0.00218
6.358,0.00032
6.36,-0.00054
6.362,0.00073
6.364,0.00263
6.366,0.00073
6.368,0.00182
6.37,0.00236
6.372,-0.002
6.374,-0.00218
6.376,0.00182
6.378,0.01835
6.38,0.02357
6.382,0.00436
6.384,-0.00872
6.386,-0.00899
6.388,-0.00336
6.39,-0.01771
6.392,-0.00917
6.394,0.00313
6.396,0.0089
6.398,0
6.4,-0.00327
6.402,0.00341
6.404,0.00536
6.406,0.00727
6.408,0.01135
6.41,0.00182
6.412,-0.00345
6.414,0.00118
6.416,0.00363
6.418,0.00132
6.42,0.00223
6.422,-0.00036
6.424,0.005
6.426,0.00332
6.428,0.00182
6.43,0.00218
6.432,0.00472
6.434,0.00109
6.436,0.002
6.438,0.00118
6.44,0.002
6.442,0.0049
6.444,0.00114
6.446,0.00091
6.448,0.00254
6.45,0.00272
6.452,0.00372
6.454,0.00291
6.456,0
6.458,0.00204
6.46,0.00236
6.462,0.00291
6.464,0.00272
6.466,0.00163
6.468,0.00254
6.47,-0.00064
6.472,-0.00064
6.474,-0.00363
6.476,-0.00227
6.478,0.00872
6.48,0.01108
6.482,0.00881
6.484,0.00372
6.486,0.00513
6.488,0.00945
6.49,-0.00091
6.492,-0.01099
6.494,-0.0069
6.496,-0.0069
6.498,0.00336
6.5,0.003
6.502,-0.00727
6.504,-0.00163
6.506,0.00813
6.508,0.00981
6.51,0.00799
6.512,0.00463
6.514,-0.00136
6.516,0.00454
6.518,-0.00109
6.52,-0.005
6.522,0.00027
6.524,-0.00123
6.526,-0.00109
6.528,0.00413
6.53,0.00454
6.532,-0.00014
6.534,0
6.536,0.00241
6.538,0.00236
6.54,0.00332
6.542,0.00223
6.544,0.00418
6.546,0.00518
6.548,0.00114
6.55,0.00332
6.552,0.00291
6.554,0.002
6.556,0.00032
6.558,0.00032
6.56,0.00363
6.562,0.0049
6.564,0.00145
6.566,0.00118
6.568,-0.00127
6.57,-0.00218
6.572,0.00272
6.574,0.00145
6.576,0.00363
6.578,0.01058
6.58,0.02271
6.582,-0.00572
6.584,-0.01798
6.586,-0.00481
6.588,0.00445
6.59,0.00731
6.592,0.00563
6.594,0.00272
6.596,-0.01217
6.598,0.00018
6.6,-0.00309
6.602,-0.00209
6.604,0.00472
6.606,0.00118
6.608,0.00209
6.61,0.00981
6.612,-0.00472
6.614,-0.00454
6.616,0.00114
6.618,0.00295
6.62,0.00436
6.622,-0.00027
6.624,0.00309
6.626,0.00154
6.628,0.00372
6.63,0.004
6.632,0.002
6.634,-0.00127
6.636,-0.00041
6.638,0.00563
6.64,0.00218
6.642,9.00E-05
6.644,0.00645
6.646,0.00695
6.648,-0.00518
6.65,-0.00363
6.652,0.00036
6.654,0.00182
6.656,0.00363
6.658,0.00236
6.66,0.00436
6.662,0.00268
6.664,0.00291
6.666,0.00114
6.668,-0.00023
6.67,0.00127
6.672,0.00032
6.674,0.00436
6.676,0.00145
6.678,0.00599
6.68,0.00663
6.682,-0.00036
6.684,-0.002
6.686,-0.00718
6.688,-0.00463
6.69,-0.00104
6.692,0.01199
6.694,0.00363
6.696,-0.00109
6.698,0.00849
6.7,-0.00182
6.702,-0.00549
6.704,0.00241
6.706,0.0049
6.708,0.00218
6.71,0.00109
6.712,0.00118
6.714,-0.00145
6.716,0.00073
6.718,0.00145
6.72,0.0015
6.722,0.00372
6.724,0.00327
6.726,0.00254
6.728,-0.00054
6.73,-0.00064
6.732,0.002
6.734,0.00563
6.736,0.00545
6.738,0.00254
6.74,0.00345
6.742,0.00218
6.744,0.002
6.746,0.00145
6.748,0.00254
6.75,0.00363
6.752,-0.00036
6.754,-0.00145
6.756,0.00263
6.758,-0.00245
6.76,0.00295
6.762,0.01599
6.764,0.00182
6.766,-0.00531
6.768,-0.00391
6.77,-0.00599
6.772,-0.00282
6.774,0.00599
6.776,0.00436
6.778,0
6.78,0.00363
6.782,0.00218
6.784,0
6.786,-0.00036
6.788,0.00531
6.79,0.00186
6.792,0.00114
6.794,0.00182
6.796,0
6.798,0.00154
6.8,0.00127
6.802,0.00109
6.804,0.00082
6.806,0.00277
6.808,0.00854
6.81,-0.00436
6.812,-0.00209
6.814,-0.00036
6.816,9.00E-05
6.818,0.00454
6.82,0.00445
6.822,0.00254
6.824,0.00109
6.826,0.00309
6.828,0.00318
6.83,0.00182
6.832,-0.00064
6.834,0.00045
6.836,0.00027
6.838,0.00391
6.84,0.00836
6.842,0.00454
6.844,0.00127
6.846,-0.00163
6.848,0.00291
6.85,0.01063
6.852,-0.00872
6.854,0.00163
6.856,0.00327
6.858,-0.00218
6.86,-0.00908
6.862,0.001
6.864,0.00881
6.866,0.00599
6.868,-0.00763
6.87,-0.00091
6.872,0.00472
6.874,0.00032
6.876,-0.00168
6.878,0.00277
6.88,0.00872
6.882,-0.00073
6.884,-0.00095
6.886,-0.00036
6.888,0.00381
6.89,0.00182
6.892,0.00254
6.894,0.00327
6.896,9.00E-05
6.898,-0.00036
6.9,0.004
6.902,0.00736
6.904,0.00441
6.906,-0.00109
6.908,0.0059
6.91,-0.00141
6.912,0.01185
6.914,0.00663
6.916,-0.00908
6.918,-0.00145
6.92,-0.00163
6.922,0.01471
6.924,0.01508
6.926,-0.01717
6.928,-0.00872
6.93,-0.00604
6.932,-0.00073
6.934,0.00182
6.936,0.00254
6.938,0.00359
6.94,0.00454
6.942,0.00568
6.944,0.00254
6.946,0.00277
6.948,0.00436
6.95,0.00186
6.952,0.00218
6.954,0.004
6.956,0.00254
6.958,0.00381
6.96,-0.00036
6.962,-0.00104
6.964,0.00118
6.966,-0.00036
6.968,0.00245
6.97,0.003
6.972,0.00254
6.974,-0.00036
6.976,0.00236
6.978,0.00509
6.98,0.00345
6.982,0.00127
6.984,0.00154
6.986,0.00436
6.988,0.00422
6.99,-0.00036
6.992,-0.00073
6.994,0.002
6.996,0.00372
6.998,0.00654
7,0.01017
7.002,0.00686
7.004,0.00041
7.006,0.00599
7.008,-0.00627
7.01,-0.01126
7.012,-0.00645
7.014,0.00381
7.016,-0.00209
7.018,-0.00472
7.02,-0.00145
7.022,0.00404
7.024,0.00318
7.026,0.00581
7.028,0.00291
7.03,-0.00109
7.032,0.00182
7.034,0.00272
7.036,0.00032
7.038,0.00109
7.04,0.00422
7.042,0.00227
7.044,0.00032
7.046,0.001
7.048,0.00658
7.05,0.00745
7.052,0.00263
7.054,0.00391
7.056,0.00218
7.058,0.00427
7.06,0.00032
7.062,0.00372
7.064,0.00032
7.066,-0.00218
7.068,-0.00014
7.07,-0.00377
7.072,0.00436
7.074,0.00436
7.076,0.00127
7.078,5.00E-05
7.08,0.00032
7.082,0.00436
7.084,0.00236
7.086,0.00127
7.088,0
7.09,0.00145
7.092,0.00077
7.094,0.00263
7.096,0.00291
7.098,0.00073
7.1,0.00082
7.102,0.00127
7.104,0.00381
7.106,0.00577
7.108,0.00218
7.11,0.00254
7.112,-0.00654
7.114,0.00899
7.116,0.01526
7.118,0.03002
7.12,-0.01381
7.122,-0.02507
7.124,-0.01308
7.126,0.00518
7.128,0.00032
7.13,-0.00327
7.132,0.01599
7.134,0.00245
7.136,-0.00481
7.138,-0.01335
7.14,0.00236
7.142,0.00118
7.144,0.00272
7.146,0.00699
7.148,0.00545
7.15,0.00445
7.152,0.00345
7.154,0.00268
7.156,0.00363
7.158,0.0049
7.16,0.00291
7.162,0.00145
7.164,0.00032
7.166,0.00154
7.168,0.00327
7.17,0.00132
7.172,0.00186
7.174,0.00082
7.176,0.00263
7.178,0.00213
7.18,0.00304
7.182,0.00291
7.184,0.0045
7.186,0.00145
7.188,0.00032
7.19,0.00186
7.192,0.00127
7.194,0.00272
7.196,0.00182
7.198,0.00027
7.2,0.00045
7.202,-0.00082
7.204,0.003
7.206,0.00263
7.208,0.00154
7.21,0.002
7.212,0.00309
7.214,0.00218
7.216,0.01072
7.218,-0.00613
7.22,0.00291
7.222,0.00436
7.224,-0.00036
7.226,0.01217
7.228,-0.001
7.23,0.00372
7.232,-0.01508
7.234,-0.00527
7.236,-0.00245
7.238,-0.00372
7.24,-0.00045
7.242,0.00118
7.244,0.00163
7.246,0.00436
7.248,0.00345
7.25,0.0049
7.252,0.00327
7.254,0.00727
7.256,0.00291
7.258,-0.00109
7.26,0.00254
7.262,0.00454
7.264,0.00123
7.266,0.00123
7.268,0.00109
7.27,-0.00145
7.272,-0.00036
7.274,0.00082
7.276,0.00191
7.278,0.003
7.28,-0.00036
7.282,0.00118
7.284,0.00345
7.286,0.00182
7.288,0.002
7.29,0.00032
7.292,0.00195
7.294,0.00127
7.296,0.00191
7.298,0.00263
7.3,0.00145
7.302,0.00327
7.304,0.00109
7.306,0.00454
7.308,0.00227
7.31,0.00032
7.312,-0.00173
7.314,0.00191
7.316,0.00618
7.318,0.00309
7.32,0.00322
7.322,0.01008
7.324,0.01435
7.326,0.01244
7.328,-0.00227
7.33,0.02035
7.332,-0.02825
7.334,-0.01717
7.336,0.00549
7.338,-0.01163
7.34,-0.00681
7.342,0.00695
7.344,0.00695
7.346,-0.01163
7.348,-0.00372
7.35,0.004
7.352,0.00563
7.354,0.00381
7.356,0.00381
7.358,-0.00027
7.36,-0.00154
7.362,0.00327
7.364,0.00327
7.366,0.00445
7.368,0.00436
7.37,0.00254
7.372,0.00227
7.374,0.00204
7.376,0.00236
7.378,0.00613
7.38,0.00509
7.382,0.00422
7.384,0.00227
7.386,0.00454
7.388,0.00182
7.39,-0.00095
7.392,-0.00018
7.394,0.00082
7.396,0.00218
7.398,0.00291
7.4,0.00291
7.402,0.00227
7.404,-0.00023
7.406,-0.00254
7.408,0.00336
7.41,0.01163
7.412,0.00123
7.414,0.00345
7.416,0.00436
7.418,-0.00599
7.42,-0.00463
7.422,0.00418
7.424,-0.00413
7.426,-0.00045
7.428,0.01108
7.43,0.004
7.432,-0.00272
7.434,-0.00745
7.436,0.00327
7.438,0.00204
7.44,0.00967
7.442,0.001
7.444,-0.00727
7.446,-0.00599
7.448,-0.003
7.45,-0.00127
7.452,0.00109
7.454,0.00695
7.456,0.01526
7.458,-0.00645
7.46,0.00023
7.462,0.00272
7.464,0.00309
7.466,0.00345
7.468,0.00354
7.47,0.00186
7.472,0.002
7.474,0.00127
7.476,0.00327
7.478,0.00272
7.48,0.00109
7.482,0.00127
7.484,-0.00245
7.486,0.00254
7.488,0.00681
7.49,0.00586
7.492,0.00763
7.494,-0.00418
7.496,-0.00549
7.498,0.00295
7.5,0.00527
7.502,0.00309
7.504,0.00168
7.506,-0.00045
7.508,0.00032
7.51,-0.00182
7.512,-0.00163
7.514,0.00332
7.516,0.002
7.518,-0.00236
7.52,-0.00163
7.522,0.00145
7.524,0.00191
7.526,0.00304
7.528,0.00309
7.53,0.00236
7.532,0.00354
7.534,0.00391
7.536,0.00186
7.538,0.00318
7.54,0.00836
7.542,0.00291
7.544,-0.00391
7.546,-0.00095
7.548,-0.00036
7.55,0.00182
7.552,0.00327
7.554,0.00345
7.556,0.00381
7.558,-0.00191
7.56,0.00182
7.562,0.00236
7.564,0.00145
7.566,0.00454
7.568,0.01049
7.57,0.00409
7.572,0.00654
7.574,-0.0104
7.576,0.00032
7.578,-0.00618
7.58,0.00609
7.582,0.00327
7.584,-0.00381
7.586,-0.00282
7.588,0.00145
7.59,0.00073
7.592,0.01199
7.594,0.01108
7.596,-0.01199
7.598,-0.00836
7.6,0.00309
7.602,0.00291
7.604,0.00409
7.606,0.00073
7.608,-0.00227
7.61,0.00363
7.612,0.00954
7.614,-0.00304
7.616,0.00114
7.618,0.00618
7.62,0.00236
7.622,0.00182
7.624,0.00186
7.626,0.00254
7.628,0.00027
7.63,0.00027
7.632,0.00127
7.634,-0.00291
7.636,-0.00036
7.638,0.00599
7.64,0.00381
7.642,-0.00463
7.644,0.00827
7.646,0.01381
7.648,0.00027
7.65,0.00032
7.652,-0.00091
7.654,-0.00354
7.656,0.004
7.658,0.01562
7.66,0.01017
7.662,0.00109
7.664,-0.00472
7.666,-0.00727
7.668,-0.00631
7.67,-0.00636
7.672,-0.00272
7.674,0.0054
7.676,0.00609
7.678,0.00145
7.68,0.00259
7.682,0.00032
7.684,-0.00127
7.686,0.005
7.688,0.00563
7.69,0.0049
7.692,-0.00073
7.694,0.00182
7.696,0.00272
7.698,0.003
7.7,0.00073
7.702,0.00032
7.704,0.00404
7.706,0.00545
7.708,-0.00218
7.71,-0.00032
7.712,0.00027
7.714,0.00032
7.716,0.00332
7.718,0.00381
7.72,0.00182
7.722,0.00372
7.724,0.00345
7.726,0.00291
7.728,-0.00054
7.73,0.01045
7.732,0.003
7.734,-0.01308
7.736,0.00091
7.738,0.00985
7.74,-0.00145
7.742,-0.00354
7.744,-0.00363
7.746,0.00032
7.748,0.00254
7.75,0.00123
7.752,0.00254
7.754,0.00459
7.756,0.00313
7.758,0.00118
7.76,0.00032
7.762,0.0069
7.764,0.00073
7.766,0.00073
7.768,0.00254
7.77,0.00545
7.772,0.00727
7.774,0.00727
7.776,-0.00917
7.778,0.00904
7.78,0.00291
7.782,-0.00549
7.784,-0.00636
7.786,0.00163
7.788,0.00718
7.79,0.00613
7.792,0.00618
7.794,0.00332
7.796,0.00018
7.798,0.00054
7.8,-0.00245
7.802,-0.00727
7.804,-0.00209
7.806,-0.00027
7.808,0
7.81,0.00527
7.812,0.00545
7.814,0.002
7.816,0.00186
7.818,0.00191
7.82,0.00091
7.822,0.00145
7.824,0.00854
7.826,0.0109
7.828,0.01199
7.83,-0.0129
7.832,0.01017
7.834,-0.00272
7.836,-0.0099
7.838,0.00032
7.84,0.00318
7.842,-0.00073
7.844,0.00445
7.846,0.00563
7.848,0.00581
7.85,0.003
7.852,0.00163
7.854,0.00145
7.856,0.00145
7.858,0.00109
7.86,-0.00091
7.862,-0.00054
7.864,-0.00127
7.866,0.00018
7.868,0.00241
7.87,0.002
7.872,0.00808
7.874,0.00327
7.876,-0.00045
7.878,0
7.88,-0.00209
7.882,0.00218
7.884,0.003
7.886,0.01462
7.888,0.00636
7.89,-0.00945
7.892,0.00227
7.894,0.00236
7.896,0.00227
7.898,0.00109
7.9,-0.00045
7.902,0.00509
7.904,-0.00754
7.906,-0.00609
7.908,-0.00091
7.91,0.00259
7.912,5.00E-05
7.914,0.00118
7.916,0.00236
7.918,0.00291
7.92,0.0059
7.922,0.0049
7.924,0.00445
7.926,0.00032
7.928,-0.00263
7.93,0.00672
7.932,0.01662
7.934,-0.00354
7.936,-0.00654
7.938,0.00145
7.94,0.00527
7.942,0.00618
7.944,0.01344
7.946,0.00054
7.948,-0.02012
7.95,-0.00799
7.952,-0.00027
7.954,0.00254
7.956,0.00354
7.958,0.00786
7.96,0.00509
7.962,-0.002
7.964,0.00127
7.966,0.00472
7.968,0.00336
7.97,0
7.972,-0.00036
7.974,0.00032
7.976,0.00218
7.978,0
7.98,0.00173
7.982,0.00708
7.984,0.00836
7.986,-0.00036
7.988,-0.00032
7.99,0.01244
7.992,0.00114
7.994,0.00032
7.996,-0.00618
7.998,-0.00708
8,-0.00091
8.002,0.00436
8.004,0.00372
8.006,0.00104
8.008,0.00363
8.01,0.00327
8.012,-0.00163
8.014,0.00291
8.016,0.00363
8.018,0.004
8.02,0.00163
8.022,0.01131
8.024,0.02107
8.026,-0.00463
8.028,-0.00073
8.03,0.00409
8.032,0.00445
8.034,0.00095
8.036,-0.00926
8.038,-0.01017
8.04,-0.00327
8.042,-0.01144
8.044,-0.01126
8.046,-0.00718
8.048,0.00418
8.05,0.01045
8.052,0.00799
8.054,0.00981
8.056,0.00218
8.058,0.00163
8.06,0.00781
8.062,0.00091
8.064,0.00581
8.066,0.00713
8.068,0.00027
8.07,0.00291
8.072,-0.00327
8.074,0.00095
8.076,0.0109
8.078,0.00772
8.08,0.00527
8.082,0.00309
8.084,-0.00708
8.086,-0.01117
8.088,0.002
8.09,0.01135
8.092,-0.00236
8.094,-0.00654
8.096,0.00808
8.098,0.00154
8.1,-0.01045
8.102,-0.00454
8.104,0.00763
8.106,-0.00082
8.108,0.00463
8.11,0.02489
8.112,0.00545
8.114,-0.01108
8.116,-0.00563
8.118,0.00322
8.12,0.00749
8.122,0.00836
8.124,0.01045
8.126,0.00218
8.128,-0.01081
8.13,0.00309
8.132,-0.00191
8.134,0.00018
8.136,0.00277
8.138,0.00114
8.14,0.00182
8.142,0.00268
8.144,0.00145
8.146,0.00854
8.148,0.00254
8.15,-0.00327
8.152,0.00254
8.154,0.00372
8.156,0.00191
8.158,0
8.16,0.00109
8.162,0.002
8.164,0.00209
8.166,0.00268
8.168,-0.00236
8.17,-0.00054
8.172,0.00436
8.174,0.01072
8.176,0.00827
8.178,-0.00109
8.18,-0.00318
8.182,-0.00054
8.184,0.00254
8.186,0.00154
8.188,-0.00545
8.19,-0.00549
8.192,0.00091
8.194,0.00481
8.196,0.00572
8.198,0.00391
8.2,0.00313
8.202,0.00422
8.204,-0.00291
8.206,-0.00036
8.208,0.00168
8.21,0.00599
8.212,0.01544
8.214,-0.00363
8.216,-0.00136
8.218,-0.00145
8.22,-0.00463
8.222,0.00345
8.224,0.00949
8.226,-0.00291
8.228,0.00186
8.23,0.00372
8.232,0.00327
8.234,0.00745
8.236,0.00981
8.238,0.00636
8.24,-0.00609
8.242,0.00127
8.244,9.00E-05
8.246,-0.00418
8.248,-0.00404
8.25,-0.01067
8.252,-0.005
8.254,-0.0059
8.256,-0.00681
8.258,0.00577
8.26,0.01444
8.262,0.00872
8.264,0.00799
8.266,0.00963
8.268,0.00318
8.27,0.00082
8.272,0.00163
8.274,0.00154
8.276,0
8.278,0.00136
8.28,0.002
8.282,0.00445
8.284,0.00182
8.286,-0.00145
8.288,0.00073
8.29,0.00163
8.292,0.00236
8.294,0.00236
8.296,0.00309
8.298,0.00091
8.3,0.00163
8.302,0.00531
8.304,0.00363
8.306,0.00114
8.308,0.001
8.31,0.00695
8.312,-0.00109
8.314,-0.00454
8.316,0
8.318,0.00836
8.32,0.00509
8.322,-0.00976
8.324,-0.00091
8.326,0.00018
8.328,-0.00327
8.33,-0.00064
8.332,0.00236
8.334,0.0089
8.336,0.01126
8.338,0.00618
8.34,0.01262
8.342,0.00109
8.344,-0.00145
8.346,0.00254
8.348,0.00032
8.35,-0.00572
8.352,-0.01031
8.354,-0.004
8.356,0.00254
8.358,0.00663
8.36,0.00436
8.362,0.02035
8.364,0.00872
8.366,-0.00772
8.368,-0.00218
8.37,0.00145
8.372,-0.01312
8.374,-0.01953
8.376,-0.00749
8.378,0.00581
8.38,0.00381
8.382,0.01045
8.384,0.00163
8.386,-0.00145
8.388,0.00599
8.39,0.00581
8.392,0.00736
8.394,0.00345
8.396,0.00254
8.398,0.00436
8.4,0.00845
8.402,0.00191
8.404,-0.00036
8.406,-0.00163
8.408,0.01163
8.41,0.00926
8.412,0.00218
8.414,0.00259
8.416,0.00454
8.418,0.00441
8.42,0.00481
8.422,-0.02198
8.424,-0.02398
8.426,-0.00858
8.428,-0.001
8.43,0.00945
8.432,0.00545
8.434,0.00381
8.436,0.00808
8.438,0.00799
8.44,0.00708
8.442,0.00472
8.444,0.01844
8.446,0.01035
8.448,-0.00872
8.45,-0.02035
8.452,-0.00291
8.454,-0.00418
8.456,-0.00381
8.458,0.00291
8.46,0.00763
8.462,0.00218
8.464,0.00636
8.466,0.00218
8.468,0.00186
8.47,0.00527
8.472,0.00531
8.474,0.00381
8.476,-0.00054
8.478,0.00236
8.48,0.00145
8.482,0.003
8.484,0.00091
8.486,0.00118
8.488,0.00182
8.49,0.00236
8.492,0.00091
8.494,0.00436
8.496,0.00095
8.498,0
8.5,-0.00272
8.502,-0.00427
8.504,-0.00127
8.506,0.00695
8.508,0.00845
8.51,0.004
8.512,0
8.514,0.00254
8.516,0.00599
8.518,0.00032
8.52,-0.00236
8.522,0.00291
8.524,0.00572
8.526,0.00127
8.528,0.01172
8.53,-0.00995
8.532,-0.00182
8.534,0.00736
8.536,-0.00618
8.538,0.001
8.54,0.005
8.542,0.00186
8.544,0.00032
8.546,0.00436
8.548,-0.00064
8.55,0.00345
8.552,0.00336
8.554,-0.00109
8.556,-0.00023
8.558,-0.00145
8.56,-0.00254
8.562,0.00091
8.564,0.00254
8.566,0.00145
8.568,0.00418
8.57,0.00363
8.572,-0.00014
8.574,0.00745
8.576,-0.00023
8.578,0.00109
8.58,0.00204
8.582,0.00227
8.584,0.00563
8.586,0.00472
8.588,0.00263
8.59,0.00091
8.592,0.00218
8.594,0.00236
8.596,0.00291
8.598,0.00109
8.6,-0.00064
8.602,0.00454
8.604,0.00722
8.606,0.00018
8.608,-0.00495
8.61,-0.00336
8.612,-0.00372
8.614,-0.00204
8.616,0.00163
8.618,0.00649
8.62,0.00745
8.622,0.00454
8.624,-0.005
8.626,-0.00609
8.628,0.00291
8.63,0.01462
8.632,0.01658
8.634,0.00073
8.636,0.00082
8.638,-0.00073
8.64,0.00182
8.642,-0.00282
8.644,-0.00763
8.646,-0.00581
8.648,0.00027
8.65,0.00454
8.652,0.00527
8.654,0.00173
8.656,0.00032
8.658,0.00313
8.66,0.00808
8.662,0.004
8.664,-0.004
8.666,-0.00509
8.668,-0.00254
8.67,0.00027
8.672,0.00291
8.674,0.0049
8.676,0.01163
8.678,0.01099
8.68,-0.00531
8.682,-0.00163
8.684,-0.00118
8.686,-0.00127
8.688,0.00163
8.69,0.00027
8.692,-0.0005
8.694,-0.00073
8.696,0.00254
8.698,0.00345
8.7,0.00563
8.702,0.00345
8.704,0.01458
8.706,0.01426
8.708,0.00345
8.71,-0.00227
8.712,-0.00781
8.714,-0.00745
8.716,-0.00981
8.718,-0.00291
8.72,0.00536
8.722,0.002
8.724,0.00163
8.726,0.00472
8.728,-0.00036
8.73,0.00032
8.732,0.00418
8.734,0.00736
8.736,0.00304
8.738,-0.00218
8.74,-0.00027
8.742,0.00736
8.744,0.0104
8.746,0.01281
8.748,0.01108
8.75,-0.01185
8.752,-0.00763
8.754,-0.00817
8.756,-0.00272
8.758,0.00672
8.76,0.01085
8.762,0.01126
8.764,0.00581
8.766,0.00418
8.768,0.00132
8.77,-0.00073
8.772,-0.00064
8.774,0.00836
8.776,-0.00182
8.778,0.00345
8.78,0.01317
8.782,0.01499
8.784,-0.00704
8.786,-0.005
8.788,-0.01017
8.79,-0.02225
8.792,-0.01926
8.794,-0.01163
8.796,0.00917
8.798,-0.01653
8.8,-0.01099
8.802,0.01726
8.804,0.01526
8.806,0.00118
8.808,0.00441
8.81,0.00772
8.812,0.00827
8.814,0.00236
8.816,0.00922
8.818,0.00854
8.82,-0.00191
8.822,0.00309
8.824,0.00745
8.826,0.00082
8.828,0.00481
8.83,0.00018
8.832,0.00054
8.834,0.00332
8.836,0.00599
8.838,0.00581
8.84,0.00145
8.842,-0.00282
8.844,-0.00091
8.846,-0.002
8.848,0.00327
8.85,-0.00195
8.852,0.00745
8.854,0.00772
8.856,0.00527
8.858,0.00332
8.86,0.00054
8.862,0.00191
8.864,0.00309
8.866,-0.00109
8.868,-0.00391
8.87,-0.0129
8.872,0.00073
8.874,0.00745
8.876,-0.00054
8.878,0.00263
8.88,0.00599
8.882,0.00332
8.884,0.00218
8.886,-0.00136
8.888,0.00173
8.89,0.00418
8.892,0.00736
8.894,0.00027
8.896,-0.00236
8.898,0.00032
8.9,0.0035
8.902,0.00363
8.904,0.003
8.906,0.00372
8.908,0.00118
8.91,-0.0045
8.912,0.01276
8.914,0.03769
8.916,0.03924
8.918,0.03678
8.92,0.03415
8.922,0.03315
8.924,0.02779
8.926,0.02325
8.928,-0.02062
8.93,-0.0985
8.932,-0.08038
8.934,-0.04886
8.936,-0.05686
8.938,-0.08047
8.94,-0.03633
8.942,-0.01635
8.944,-0.01222
8.946,0.02148
8.948,0.03038
8.95,0.0208
8.952,0.02121
8.954,0.02007
8.956,0.02457
8.958,0.02548
8.96,0.02066
8.962,0.02143
8.964,0.02807
8.966,0.01571
8.968,0.01326
8.97,0.01762
8.972,0.0129
8.974,0.00073
8.976,-0.00418
8.978,-0.01017
8.98,-0.01017
8.982,0.01199
8.984,0.01144
8.986,0.01653
8.988,0.01653
8.99,0.00527
8.992,0
8.994,-0.00418
8.996,-0.0158
8.998,0.00363
9,0.0109
9.002,-0.00436
9.004,-0.0134
9.006,-0.00109
9.008,-0.00345
9.01,-0.0272
9.012,-0.02489
9.014,-0.00872
9.016,0.00082
9.018,-0.00418
9.02,0.00908
9.022,0.0129
9.024,0.0198
9.026,0.00627
9.028,0.00332
9.03,0.00109
9.032,0.00381
9.034,0.00095
9.036,0.00459
9.038,0.00277
9.04,0.00808
9.042,0.00854
9.044,0.01235
9.046,-0.00391
9.048,-0.00145
9.05,0.00581
9.052,0.01926
9.054,-0.00441
9.056,0.00736
9.058,0.01326
9.06,0.01535
9.062,0.00872
9.064,0.00772
9.066,0.01004
9.068,0.00727
9.07,0.02089
9.072,0.00899
9.074,-0.03815
9.076,-0.02893
9.078,-0.00549
9.08,-0.00554
9.082,-0.0287
9.084,-0.02212
9.086,-0.03706
9.088,-0.01916
9.09,0.00654
9.092,0.00954
9.094,0.00799
9.096,-0.01181
9.098,-0.00981
9.1,0.00518
9.102,0.01535
9.104,0.02107
9.106,0.02688
9.108,0.02312
9.11,0.01381
9.112,0.01408
9.114,0.00704
9.116,0.00372
9.118,0
9.12,0.01871
9.122,0.00291
9.124,0.01866
9.126,0.01962
9.128,0.01417
9.13,0.00681
9.132,-0.00182
9.134,-0.03579
9.136,-0.03306
9.138,-0.0257
9.14,-0.02062
9.142,-0.01453
9.144,0.00109
9.146,0.00727
9.148,0.02234
9.15,0.0218
9.152,0.03996
9.154,0.05095
9.156,0.04682
9.158,0.04142
9.16,0.01844
9.162,0.00441
9.164,-0.00054
9.166,-0.05086
9.168,-0.12498
9.17,-0.11898
9.172,-0.05413
9.174,-0.00599
9.176,0.01045
9.178,0.00345
9.18,0.00254
9.182,0.01771
9.184,0.03924
9.186,0.03451
9.188,0.03633
9.19,0.03465
9.192,0.00967
9.194,0.01135
9.196,0.02979
9.198,0.03674
9.2,0.03733
9.202,0.03279
9.204,0.05014
9.206,0.02561
9.208,-0.01916
9.21,-0.01971
9.212,-0.04105
9.214,-0.05377
9.216,-0.05627
9.218,-0.03756
9.22,-0.02025
9.222,-0.00313
9.224,0.01235
9.226,-0.01072
9.228,-0.03615
9.23,-0.02035
9.232,0.01208
9.234,0.02307
9.236,0.01272
9.238,0.00981
9.24,0.01526
9.242,0.02016
9.244,0.02035
9.246,-0.00945
9.248,-0.00622
9.25,0.01235
9.252,0.00922
9.254,0.02252
9.256,0.02816
9.258,0.01017
9.26,0.00509
9.262,0.0109
9.264,0.00609
9.266,0.00032
9.268,-0.01285
9.27,-0.01035
9.272,0.00472
9.274,0.00554
9.276,-0.01253
9.278,0.00186
9.28,0.01844
9.282,0.00799
9.284,0.01848
9.286,0.00132
9.288,0.00981
9.29,0.03642
9.292,0.00527
9.294,-0.00254
9.296,0.00545
9.298,-0.00145
9.3,-0.04455
9.302,-0.05413
9.304,-0.05668
9.306,-0.01144
9.308,0.00704
9.31,0.01144
9.312,0.00345
9.314,0.0059
9.316,0.01108
9.318,0.01599
9.32,0.0109
9.322,0.00845
9.324,0.00372
9.326,0.01517
9.328,0.02357
9.33,0.02189
9.332,0.0059
9.334,0.01381
9.336,0.02434
9.338,0.02688
9.34,-0.01017
9.342,-0.00318
9.344,-0.02361
9.346,0.01072
9.348,0.02089
9.35,0.00127
9.352,0.00881
9.354,0.00114
9.356,-0.07875
9.358,-0.08992
9.36,-0.04973
9.362,-0.00064
9.364,-0.03011
9.366,-0.02598
9.368,0.02171
9.37,0.03233
9.372,0.03906
9.374,0.03488
9.376,0.01526
9.378,0.00654
9.38,0.04078
9.382,0.04432
9.384,-0.00018
9.386,0.02979
9.388,0.0713
9.39,0.08719
9.392,0.01035
9.394,-0.01962
9.396,-0.08656
9.398,-0.10336
9.4,-0.06826
9.402,-0.02679
9.404,0.02852
9.406,0.00032
9.408,0.00463
9.41,0.0416
9.412,0.03706
9.414,0
9.416,-0.03978
9.418,-0.05268
9.42,-0.03806
9.422,0.00863
9.424,0.02116
9.426,-0.01172
9.428,-0.01017
9.43,0.01916
9.432,0.02698
9.434,0.0109
9.436,0.00958
9.438,0.005
9.44,0.02116
9.442,0.03401
9.444,0.02289
9.446,0.01508
9.448,0.01117
9.45,0.00481
9.452,-0.00727
9.454,-0.02007
9.456,-0.02293
9.458,-0.00436
9.46,0.01126
9.462,0.03542
9.464,0.03706
9.466,0.02698
9.468,0.01717
9.47,0.0267
9.472,0.00704
9.474,-0.06648
9.476,-0.0708
9.478,-0.05086
9.48,-0.00981
9.482,0.02489
9.484,0.04777
9.486,0.02434
9.488,-0.00581
9.49,-0.00309
9.492,0.00836
9.494,0.00613
9.496,0.00599
9.498,-0.01757
9.5,-0.02579
9.502,0.00845
9.504,0.00845
9.506,-0.00327
9.508,-0.005
9.51,-0.00609
9.512,0.00254
9.514,0.01235
9.516,0.00454
9.518,0.01417
9.52,-0.00073
9.522,-0.01562
9.524,-0.00799
9.526,0.01626
9.528,0.02548
9.53,0.02525
9.532,0.02143
9.534,0.01453
9.536,0.02852
9.538,0.02816
9.54,0.0119
9.542,0.00127
9.544,-0.02616
9.546,-0.01962
9.548,-0.00527
9.55,0.0139
9.552,-0.00209
9.554,0.02997
9.556,0.05858
9.558,-0.01253
9.56,-0.07648
9.562,-0.03624
9.564,-0.02616
9.566,-0.02225
9.568,-0.04251
9.57,-0.08302
9.572,-0.02025
9.574,0.04005
9.576,0.05359
9.578,0.04364
9.58,0.03034
9.582,0.01453
9.584,0.02906
9.586,-0.04092
9.588,-0.1049
9.59,-0.09278
9.592,-0.05472
9.594,0.01203
9.596,0.04219
9.598,0.05668
9.6,0.03633
9.602,0.02766
9.604,0.05145
9.606,0.05604
9.608,0.05604
9.61,0.05976
9.612,0.04128
9.614,0.03315
9.616,0.0465
9.618,0.01844
9.62,-0.08574
9.622,-0.08538
9.624,-0.06812
9.626,-0.05786
9.628,-0.0351
9.63,0.02012
9.632,0.04033
9.634,0.04923
9.636,0.03397
9.638,0.01835
9.64,-0.0327
9.642,-0.01167
9.644,-0.00014
9.646,-0.01744
9.648,-0.02725
9.65,-0.03134
9.652,0.00554
9.654,0.03197
9.656,0.00563
9.658,-0.00182
9.66,-0.00681
9.662,-0.01054
9.664,0.00577
9.666,0.04205
9.668,0.01344
9.67,0.03061
9.672,0.05141
9.674,0.03202
9.676,-0.01126
9.678,-0.02543
9.68,-0.00536
9.682,-0.00554
9.684,-0.01735
9.686,-0.0238
9.688,0.01853
9.69,0.05123
9.692,0.05213
9.694,-0.00854
9.696,0.01853
9.698,0.09809
9.7,0.09128
9.702,0.0446
9.704,0.01008
9.706,-0.0485
9.708,-0.07103
9.71,-0.11208
9.712,-0.18311
9.714,-0.19037
9.716,-0.06031
9.718,0.02162
9.72,0.003
9.722,0.00472
9.724,0.07893
9.726,0.18633
9.728,0.16308
9.73,0.11163
9.732,0.1426
9.734,0.06067
9.736,-0.12643
9.738,-0.1802
9.74,-0.18211
9.742,-0.1787
9.744,-0.13315
9.746,-0.08806
9.748,-0.02171
9.75,0.05295
9.752,0.05495
9.754,0.04414
9.756,0.105
9.758,0.099
9.76,0.02262
9.762,-0.01471
9.764,0.0069
9.766,0.07248
9.768,0.10354
9.77,0.04578
9.772,0.00604
9.774,0.07684
9.776,0.10981
9.778,0.05032
9.78,-0.06503
9.782,-0.16458
9.784,-0.09519
9.786,-0.04278
9.788,-0.09046
9.79,-0.05904
9.792,-0.05577
9.794,0.0327
9.796,0.07107
9.798,0.02761
9.8,0.0099
9.802,-0.00754
9.804,-0.02143
9.806,0.01054
9.808,0.0218
9.81,0.04777
9.812,0.0683
9.814,0.04178
9.816,0.05581
9.818,0.10917
9.82,0.02352
9.822,0.01926
9.824,-0.02616
9.826,-0.07684
9.828,-0.02361
9.83,-0.04173
9.832,-0.0069
9.834,-0.04328
9.836,0.00236
9.838,0.00027
9.84,-0.05668
9.842,-0.06994
9.844,-0.03724
9.846,-0.00799
9.848,0.01135
9.85,0.02075
9.852,0.06721
9.854,0.05867
9.856,0.02702
9.858,0.02916
9.86,0.03778
9.862,0.04069
9.864,0.06258
9.866,0.0723
9.868,0.0396
9.87,0.05005
9.872,0.01526
9.874,-0.05522
9.876,-0.09727
9.878,-0.11621
9.88,-0.04814
9.882,0.04087
9.884,0.04727
9.886,0
9.888,-0.08842
9.89,-0.01889
9.892,-0.01017
9.894,-0.08283
9.896,-0.24114
9.898,-0.13197
9.9,0.01308
9.902,0.06031
9.904,0.05649
9.906,0.06358
9.908,0.00154
9.91,-0.02489
9.912,0.0119
9.914,0.02879
9.916,0.12289
9.918,0.17021
9.92,0.1297
9.922,0.15668
9.924,0.15804
9.926,0.1455
9.928,0.11626
9.93,-0.03197
9.932,-0.11008
9.934,-0.17212
9.936,-0.19287
9.938,-0.1891
9.94,-0.16549
9.942,-0.0683
9.944,-0.07216
9.946,-0.06385
9.948,-0.01326
9.95,-0.00282
9.952,0.01871
9.954,-0.00727
9.956,0.0396
9.958,0.14968
9.96,0.1322
9.962,0.05086
9.964,0.01853
9.966,0.02825
9.968,0.00781
9.97,0.01798
9.972,0.02307
9.974,0.00154
9.976,0.03315
9.978,0.07193
9.98,0.02993
9.982,-0.05945
9.984,-0.04287
9.986,0.00073
9.988,-0.04469
9.99,-0.11544
9.992,-0.04868
9.994,-0.0074
9.996,0.02698
9.998,0.07107
10,0.06676
10.002,0.02916
10.004,0.03197
10.006,0.02416
10.008,0.00418
10.01,-0.00663
10.012,-0.00291
10.014,-0.02716
10.016,-0.101
10.018,-0.09691
10.02,0.00091
10.022,0.01135
10.024,0.02125
10.026,0.01939
10.028,0.06285
10.03,0.08996
10.032,0.12025
10.034,0.1119
10.036,0.06839
10.038,0.07193
10.04,-0.01798
10.042,-0.16712
10.044,-0.09219
10.046,-0.00636
10.048,-0.00763
10.05,-0.19391
10.052,-0.20745
10.054,-0.11108
10.056,-0.01989
10.058,0.01599
10.06,0.02343
10.062,0.05159
10.064,0.07902
10.066,0.07071
10.068,0.07775
10.07,0.04414
10.072,0.10463
10.074,0.0723
10.076,0.0921
10.078,0.05795
10.08,-0.04959
10.082,-0.05549
10.084,-0.13147
10.086,-0.09573
10.088,-0.02062
10.09,0.04805
10.092,0.01026
10.094,-0.001
10.096,-0.00836
10.098,0.03488
10.1,0.09591
10.102,0.10899
10.104,0.13043
10.106,0.03134
10.108,-0.07557
10.11,-0.1148
10.112,-0.17348
10.114,-0.2376
10.116,-0.12516
10.118,-0.01435
10.12,0.05976
10.122,0.06767
10.124,0.02988
10.126,0.08992
10.128,0.06658
10.13,0.07811
10.132,0.10282
10.134,0.10086
10.136,0.11776
10.138,0.11617
10.14,0.07929
10.142,-0.12243
10.144,-0.36421
10.146,-0.2307
10.148,-0.0683
10.15,0.01272
10.152,0.06412
10.154,0.1084
10.156,0.095
10.158,0.04868
10.16,0.01235
10.162,-0.01753
10.164,-0.05686
10.166,-0.06194
10.168,-0.03442
10.17,0.07784
10.172,0.0594
10.174,0.03147
10.176,0.04632
10.178,0.06358
10.18,0.08347
10.182,0.05795
10.184,0.03978
10.186,-0.00549
10.188,0.00827
10.19,0.01426
10.192,0.01471
10.194,-0.04932
10.196,-0.051
10.198,-0.1658
10.2,-0.25613
10.202,-0.17566
10.204,-0.04114
10.206,0.0465
10.208,0.06272
10.21,0.00917
10.212,0.07602
10.214,0.15568
10.216,0.12361
10.218,0.04214
10.22,0.05413
10.222,0.03451
10.224,-0.0109
10.226,-0.12952
10.228,-0.07257
10.23,0.08265
10.232,0.04087
10.234,-0.14891
10.236,-0.14823
10.238,-0.04619
10.24,0.01871
10.242,0.0436
10.244,0.03642
10.246,0.02198
10.248,0.0277
10.25,0.03342
10.252,0.05195
10.254,0.09482
10.256,0.03924
10.258,-0.02779
10.26,0.02075
10.262,0.01326
10.264,0.02357
10.266,0.01399
10.268,0.04678
10.27,-0.00236
10.272,-0.00545
10.274,-0.05032
10.276,-0.08283
10.278,-0.03633
10.28,0.01712
10.282,0.13415
10.284,0.17929
10.286,0.06871
10.288,0.04328
10.29,-0.0247
10.292,-0.04619
10.294,-0.23397
10.296,-0.30409
10.298,-0.14187
10.3,-0.04977
10.302,0.03924
10.304,0.03342
10.306,0.05686
10.308,0.03379
10.31,0.05232
10.312,0.07411
10.314,0.10899
10.316,0.08592
10.318,0.03887
10.32,0.09446
10.322,0.16444
10.324,0.13787
10.326,0.04923
10.328,0.0713
10.33,0.02888
10.332,-0.11044
10.334,-0.34214
10.336,-0.41435
10.338,-0.22252
10.34,-0.08538
10.342,-0.00309
10.344,0.04396
10.346,0.05849
10.348,-0.00036
10.35,0.07648
10.352,0.09228
10.354,0.06213
10.356,0.07434
10.358,0.08656
10.36,0.04619
10.362,0.03688
10.364,0.02125
10.366,-0.00073
10.368,-0.03978
10.37,0.06013
10.372,0.08392
10.374,0.0287
10.376,0.00599
10.378,-0.01926
10.38,0.01862
10.382,-0.00073
10.384,-0.04251
10.386,-0.0356
10.388,-0.02507
10.39,-0.02434
10.392,0.03406
10.394,0.15876
10.396,0.20808
10.398,0.10881
10.4,0.05014
10.402,0.02343
10.404,-0.09809
10.406,-0.38674
10.408,-0.38583
10.41,-0.19146
10.412,-0.09355
10.414,-0.01267
10.416,0.02443
10.418,0.08056
10.42,0.13224
10.422,0.13043
10.424,0.10731
10.426,0.07602
10.428,0.07566
10.43,0.08615
10.432,0.01998
10.434,-0.0129
10.436,-0.0361
10.438,-0.00431
10.44,-0.01744
10.442,-0.10481
10.444,-0.07747
10.446,-0.02361
10.448,-0.00454
10.45,-0.00391
10.452,-0.01326
10.454,0.004
10.456,0.07539
10.458,0.06081
10.46,0.00913
10.462,0.00895
10.464,0.00032
10.466,0.03933
10.468,0.03506
10.47,0.02852
10.472,0.00545
10.474,0.00695
10.476,0.0168
10.478,0.01535
10.48,-0.00282
10.482,-0.00672
10.484,0.00095
10.486,-0.0129
10.488,-0.0347
10.49,0.00913
10.492,0.07975
10.494,0.0881
10.496,0.07243
10.498,-0.00036
10.5,-0.03996
10.502,-0.08174
10.504,-0.17875
10.506,-0.09319
10.508,0.02071
10.51,0.00545
10.512,0.03015
10.514,-0.00136
10.516,0.05731
10.518,0.04945
10.52,0.05686
10.522,0.02443
10.524,0.02598
10.526,-0.01826
10.528,-0.05995
10.53,-0.08138
10.532,-0.07757
10.534,-0.07307
10.536,-0.00218
10.538,-0.02071
10.54,0.00436
10.542,0.05381
10.544,0.12498
10.546,0.12684
10.548,0.0881
10.55,0.06957
10.552,0.12788
10.554,0.10182
10.556,-0.00182
10.558,-0.13928
10.56,-0.20999
10.562,-0.06399
10.564,-0.14405
10.566,-0.22552
10.568,-0.13796
10.57,-0.00872
10.572,0.09128
10.574,0.09528
10.576,0.06639
10.578,0.06721
10.58,-0.01163
10.582,0.00145
10.584,0.03706
10.586,0.00418
10.588,0.02906
10.59,0.04814
10.592,0.04151
10.594,0.0287
10.596,-0.0129
10.598,-0.00509
10.6,-0.00827
10.602,-0.00536
10.604,0.0347
10.606,0.04682
10.608,0.00327
10.61,0.05386
10.612,0.08538
10.614,0.05345
10.616,0.01549
10.618,-0.02316
10.62,-0.01517
10.622,-0.05777
10.624,-0.07847
10.626,-0.08719
10.628,-0.03043
10.63,0.02234
10.632,0.02443
10.634,0.04437
10.636,0.0901
10.638,0.09119
10.64,-0.05518
10.642,-0.10736
10.644,-0.05377
10.646,-0.01671
10.648,0.03887
10.65,0.04982
10.652,0.00363
10.654,-0.00091
10.656,0.03747
10.658,0.05304
10.66,0.02534
10.662,0.01689
10.664,0.06576
10.666,0.00381
10.668,-0.05586
10.67,-0.23043
10.672,-0.19133
10.674,-0.06571
10.676,-0.14332
10.678,-0.06612
10.68,0.02475
10.682,0.13224
10.684,0.06648
10.686,0.03597
10.688,0.09809
10.69,0.0683
10.692,0.03279
10.694,0.0446
10.696,0.06122
10.698,0.02143
10.7,0.05522
10.702,0.03015
10.704,-0.00418
10.706,0.01626
10.708,0.02071
10.71,-0.05867
10.712,-0.04142
10.714,-0.03324
10.716,-0.01344
10.718,-0.02525
10.72,0.02307
10.722,0.03342
10.724,0.03306
10.726,-0.02752
10.728,-0.02807
10.73,-0.00926
10.732,0.00872
10.734,0.01072
10.736,-0.02534
10.738,-0.02652
10.74,-0.00908
10.742,0.00313
10.744,0.0158
10.746,0.07866
10.748,0.10045
10.75,0.1099
10.752,0.21217
10.754,0.20327
10.756,0.13061
10.758,-0.00772
10.76,-0.22089
10.762,-0.29246
10.764,-0.40409
10.766,-0.30222
10.768,-0.09037
10.77,0.08156
10.772,0.03106
10.774,-0.01371
10.776,0.06085
10.778,0.1079
10.78,0.10963
10.782,0.0569
10.784,0.00227
10.786,0.0549
10.788,0.07575
10.79,0.06013
10.792,0.06667
10.794,0.02906
10.796,-0.06957
10.798,-0.08193
10.8,-0.12879
10.802,-0.06067
10.804,-0.02016
10.806,0.00954
10.808,0.02634
10.81,0.04305
10.812,0.05477
10.814,0.01262
10.816,0.00808
10.818,0.0198
10.82,0.00699
10.822,0.01276
10.824,0.04346
10.826,0.04369
10.828,0.01871
10.83,0.01017
10.832,0.02834
10.834,0.00436
10.836,-0.02361
10.838,-0.00291
10.84,0.05622
10.842,0.07302
10.844,0.00981
10.846,-0.02557
10.848,-0.01599
10.85,-0.01017
10.852,-0.03379
10.854,-0.06921
10.856,-0.00545
10.858,0.00872
10.86,0.06585
10.862,0.05377
10.864,-0.02584
10.866,0.01054
10.868,-0.00763
10.87,-0.09437
10.872,-0.06975
10.874,-0.01471
10.876,0.00418
10.878,0.04105
10.88,-0.01299
10.882,-0.03233
10.884,-0.00509
10.886,-0.03883
10.888,0.03015
10.89,0.03742
10.892,0.01971
10.894,-0.08501
10.896,-0.04832
10.898,-0.07321
10.9,-0.09882
10.902,-0.00763
10.904,0.08074
10.906,0.06585
10.908,0.05731
10.91,0.06521
10.912,0.03869
10.914,0.00073
10.916,0.00163
10.918,-0.00018
10.92,-0.00999
10.922,0.004
10.924,0.0347
10.926,0.06621
10.928,0.06757
10.93,0.07502
10.932,0.08211
10.934,0.00681
10.936,-0.0446
10.938,-0.03692
10.94,-0.06903
10.942,-0.12221
10.944,-0.12361
10.946,-0.06558
10.948,-0.00727
10.95,0.01417
10.952,0.03851
10.954,0.04296
10.956,0.04405
10.958,0.02938
10.96,0.03533
10.962,0.11135
10.964,0.02035
10.966,-0.00418
10.968,0.01272
10.97,0.04124
10.972,0.11453
10.974,0.15227
10.976,0.10536
10.978,0.00091
10.98,-0.04396
10.982,-0.14859
10.984,-0.21253
10.986,-0.13542
10.988,-0.05613
10.99,-0.00459
10.992,-0.02098
10.994,-0.07048
10.996,-0.13024
10.998,-0.00817
11,0.00372
11.002,0.01835
11.004,0.00845
11.006,0.02675
11.008,0.03869
11.01,0.08501
11.012,0.07761
11.014,0.10191
11.016,0.09237
11.018,0.00808
11.02,-0.07557
11.022,-0.02525
11.024,0.02307
11.026,-0.01353
11.028,-0.09024
11.03,-0.07221
11.032,-0.02652
11.034,0.01453
11.036,0.01144
11.038,0.00572
11.04,-0.00204
11.042,0.03815
11.044,0.04732
11.046,0.01326
11.048,0.00908
11.05,-0.00599
11.052,0.03983
11.054,0.04764
11.056,0.03642
11.058,-0.02607
11.06,-0.01499
11.062,-0.02516
11.064,0.00173
11.066,-0.004
11.068,-0.00704
11.07,-0.01099
11.072,0.00754
11.074,0.02107
11.076,0.04682
11.078,0.03597
11.08,0.02507
11.082,0.00218
11.084,-0.0149
11.086,0.002
11.088,-0.01962
11.09,-0.0158
11.092,-0.01694
11.094,-0.00854
11.096,-0.01335
11.098,0.02398
11.1,0.02525
11.102,-0.00136
11.104,0.00545
11.106,0.00472
11.108,-0.02534
11.11,-0.00182
11.112,0.03574
11.114,0.01894
11.116,-0.00763
11.118,-0.03524
11.12,-0.02293
11.122,0.004
11.124,0.02071
11.126,-0.02943
11.128,-0.02416
11.13,0.00445
11.132,0.03052
11.134,-0.01054
11.136,-0.00708
11.138,0.02784
11.14,0.01853
11.142,-0.01717
11.144,-0.00613
11.146,-0.02062
11.148,0.03815
11.15,0.06122
11.152,0.02725
11.154,0.03161
11.156,-0.0634
11.158,-0.04505
11.16,-0.04687
11.162,-0.03288
11.164,-0.00191
11.166,0.00372
11.168,0.01844
11.17,0.00472
11.172,-0.00145
11.174,-0.00572
11.176,-0.0129
11.178,0.00372
11.18,0.03088
11.182,0.07829
11.184,0.07757
11.186,0.09092
11.188,0.095
11.19,0.06767
11.192,-0.01944
11.194,-0.11153
11.196,-0.18656
11.198,-0.15277
11.2,-0.05722
11.202,0.03946
11.204,0.0738
11.206,0.07593
11.208,0.07529
11.21,0.06885
11.212,0.03733
11.214,0.03706
11.216,-0.00418
11.218,-0.10681
11.22,-0.20527
11.222,-0.20263
11.224,-0.13242
11.226,-0.03524
11.228,0.04015
11.23,0.07234
11.232,0.08665
11.234,0.06467
11.236,0.0713
11.238,0.06213
11.24,0.03815
11.242,0.04777
11.244,-0.01907
11.246,-0.00963
11.248,0.01208
11.25,-0.04242
11.252,-0.00463
11.254,0.05023
11.256,0.0643
11.258,0.04214
11.26,0.03606
11.262,0.03233
11.264,0.02062
11.266,-0.02189
11.268,-0.01757
11.27,0.01244
11.272,-0.0079
11.274,-0.03669
11.276,-0.03851
11.278,-0.04619
11.28,-0.05631
11.282,-0.01281
11.284,0.06739
11.286,0.04487
11.288,-0.03515
11.29,-0.02489
11.292,0.00386
11.294,0.00118
11.296,0.00109
11.298,0.02743
11.3,0.01072
11.302,0.01735
11.304,0.02307
11.306,0.02961
11.308,0.03751
11.31,0.04401
11.312,0.03052
11.314,-0.01031
11.316,-0.02044
11.318,-0.07116
11.32,-0.05195
11.322,-0.04378
11.324,-0.02143
11.326,0.02752
11.328,-0.01308
11.33,0.00091
11.332,0.02434
11.334,0.03043
11.336,0.00277
11.338,-0.00708
11.34,0.01948
11.342,-0.02598
11.344,-0.00282
11.346,0.00945
11.348,-0.01712
11.35,-0.01217
11.352,0.01939
11.354,0.02398
11.356,0.02416
11.358,-0.00536
11.36,-0.0218
11.362,0.02852
11.364,0.05872
11.366,0.02003
11.368,-0.01926
11.37,-0.0307
11.372,-0.02035
11.374,0.00663
11.376,0.00654
11.378,-0.00254
11.38,-0.0247
11.382,-0.00014
11.384,0.00477
11.386,-0.02834
11.388,-0.03406
11.39,0.00227
11.392,0.01108
11.394,0.00109
11.396,0.01054
11.398,0.00727
11.4,0.03124
11.402,0.02203
11.404,-0.00032
11.406,0.03787
11.408,0.04514
11.41,0.03415
11.412,-0.02107
11.414,-0.03651
11.416,-0.04033
11.418,-0.03592
11.42,-0.00404
11.422,-0.00173
11.424,0.00268
11.426,-0.00581
11.428,0.00704
11.43,0.02634
11.432,0.03787
11.434,0.0218
11.436,0.00513
11.438,0.00091
11.44,0.004
11.442,0.01771
11.444,0.01399
11.446,0.00463
11.448,-0.02761
11.45,-0.03074
11.452,-0.00704
11.454,0.00091
11.456,0.004
11.458,-0.00981
11.46,-0.01762
11.462,-0.01276
11.464,0.00586
11.466,0.03579
11.468,0.03388
11.47,0.02153
11.472,0.00418
11.474,0.0015
11.476,-0.00663
11.478,-0.0332
11.48,-0.02525
11.482,-0.01399
11.484,-0.01335
11.486,0.00763
11.488,-0.00218
11.49,-0.00036
11.492,0.00527
11.494,-0.00327
11.496,0.00032
11.498,0.00654
11.5,0.01072
11.502,0.00945
11.504,0.01244
11.506,0.01054
11.508,-0.00182
11.51,-0.00509
11.512,0.00168
11.514,-0.00304
11.516,0.00531
11.518,0.01585
11.52,-0.00509
11.522,-0.00463
11.524,0.01326
11.526,-0.00327
11.528,0.00436
11.53,0.01471
11.532,-0.00836
11.534,-0.00745
11.536,-0.0069
11.538,-0.00599
11.54,0.00581
11.542,0.02189
11.544,0.02734
11.546,0.01317
11.548,-0.00054
11.55,0.00027
11.552,0.00636
11.554,-0.0074
11.556,-0.00554
11.558,0.01217
11.56,-0.00291
11.562,-0.01499
11.564,-0.00854
11.566,0.00363
11.568,0.005
11.57,0.0015
11.572,-0.00645
11.574,0.005
11.576,0.01163
11.578,0.00309
11.58,-0.00218
11.582,-0.00232
11.584,0.00332
11.586,0.00472
11.588,-0.00663
11.59,-0.00654
11.592,-0.00872
11.594,0.00145
11.596,0.00154
11.598,0.00263
11.6,0.00836
11.602,0.00318
11.604,0.01349
11.606,0.00073
11.608,0.00391
11.61,0.00981
11.612,0.001
11.614,-0.00345
11.616,-0.0005
11.618,0.00545
11.62,0.01126
11.622,0.00109
11.624,0.00127
11.626,-0.00073
11.628,0.00899
11.63,-0.00481
11.632,-0.01054
11.634,0.00872
11.636,-0.00127
11.638,-0.01371
11.64,0.00082
11.642,0.00272
11.644,0.00454
11.646,0.00163
11.648,0.00077
11.65,-0.00481
11.652,0.00195
11.654,-0.00581
11.656,0.00391
11.658,0.00931
11.66,0.00799
11.662,0.01017
11.664,0.0059
11.666,0.01544
11.668,0.01926
11.67,0.00967
11.672,0.01662
11.674,0.01172
11.676,0.00436
11.678,-0.00436
11.68,-0.03456
11.682,-0.0515
11.684,-0.00177
11.686,0.0218
11.688,-0.00209
11.69,-0.01635
11.692,-0.01798
11.694,-0.01199
11.696,0.02175
11.698,0.02779
11.7,0.0168
11.702,0.00672
11.704,9.00E-05
11.706,0.01817
11.708,0.01753
11.71,0.00836
11.712,-0.004
11.714,-0.00799
11.716,-0.00327
11.718,-0.00327
11.72,-0.01308
11.722,-0.00413
11.724,0.00332
11.726,-0.00536
11.728,0.00145
11.73,0.01299
11.732,-0.02797
11.734,-0.03324
11.736,-0.01853
11.738,-0.00627
11.74,0.00372
11.742,0.01072
11.744,0.00145
11.746,0.01526
11.748,0.01857
11.75,0.02816
11.752,0.02543
11.754,0.02652
11.756,0.01998
11.758,0.01508
11.76,-0.00618
11.762,-0.02906
11.764,-0.01871
11.766,-0.00618
11.768,0.00386
11.77,0.01898
11.772,0.01798
11.774,0.00945
11.776,0.00218
11.778,-0.00886
11.78,-0.01599
11.782,-0.00327
11.784,0.0059
11.786,-0.00472
11.788,-0.00054
11.79,0.00272
11.792,0.00163
11.794,-0.00118
11.796,0.00836
11.798,0.0089
11.8,0.00672
11.802,0.00218
11.804,0.00268
11.806,0.00227
11.808,-0.00036
11.81,0.00327
11.812,0.00291
11.814,0.00082
11.816,0.00186
11.818,0.00872
11.82,-0.00327
11.822,-0.002
11.824,-0.00027
11.826,0.00236
11.828,0.00236
11.83,-0.00182
11.832,-0.00127
11.834,0.00418
11.836,0.00654
11.838,-0.00127
11.84,-0.00109
11.842,0.00545
11.844,0.00154
11.846,-0.00581
11.848,-0.00182
11.85,0.0089
11.852,0.00236
11.854,0.00032
11.856,0.00073
11.858,0.00441
11.86,0.00481
11.862,-0.00327
11.864,0.00254
11.866,0.00027
11.868,0.00518
11.87,0.00527
11.872,0.00441
11.874,-0.00027
11.876,0.00191
11.878,0.00481
11.88,-0.00109
11.882,-0.01126
11.884,-0.00963
11.886,-0.00381
11.888,0.00218
11.89,-0.00145
11.892,0.00881
11.894,-0.00254
11.896,-0.00277
11.898,0.00481
11.9,0.00799
11.902,0.00781
11.904,-0.00109
11.906,-0.00418
11.908,-0.00754
11.91,-0.01453
11.912,0.004
11.914,0.02107
11.916,0.0139
11.918,0.01535
11.92,-0.00272
11.922,0.00804
11.924,0.0218
11.926,0.00454
11.928,-0.00563
11.93,-0.00291
11.932,0.00332
11.934,-0.00182
11.936,-0.01108
11.938,-0.00481
11.94,0.00472
11.942,0.00182
11.944,-0.00472
11.946,-0.00436
11.948,-0.00209
11.95,-0.00173
11.952,0.00336
11.954,0.01417
11.956,0.01072
11.958,0.01054
11.96,0.00763
11.962,0.01381
11.964,0.00727
11.966,-0.01399
11.968,0.00073
11.97,-0.00926
11.972,-0.00945
11.974,-0.00708
11.976,-0.0089
11.978,0.00254
11.98,-0.00018
11.982,0.01258
11.984,0
11.986,-0.00718
11.988,0.00908
11.99,0.01199
11.992,0.00609
11.994,0.00827
11.996,0.01108
11.998,0.0089
12,0.004
12.002,0.00881
12.004,-0.00036
12.006,0.00391
12.008,-0.00654
12.01,-0.0149
12.012,-0.00427
12.014,0.00618
12.016,-0.01889
12.018,-0.01344
12.02,-0.00282
12.022,-0.00318
12.024,0.00727
12.026,0.00454
12.028,0.00727
12.03,0.01217
12.032,0.01126
12.034,0.01131
12.036,0.01344
12.038,-0.01135
12.04,-0.01326
12.042,-0.01453
12.044,-0.01235
12.046,-0.00345
12.048,-0.00813
12.05,-0.00427
12.052,0.03043
12.054,0.03093
12.056,0.02688
12.058,0.02352
12.06,0.00372
12.062,-0.00454
12.064,-0.00681
12.066,-0.00799
12.068,-0.00291
12.07,0.00272
12.072,-0.00082
12.074,-0.00327
12.076,-0.00463
12.078,-0.00609
12.08,-0.00209
12.082,0.00073
12.084,0.00027
12.086,0.005
12.088,-0.00054
12.09,0.00082
12.092,0.00481
12.094,0.00363
12.096,0.00699
12.098,0.01299
12.1,0.00817
12.102,0.00509
12.104,9.00E-05
12.106,-0.00309
12.108,-0.00436
12.11,0.00268
12.112,-0.00118
12.114,-0.00817
12.116,-0.00836
12.118,-0.00245
12.12,0.005
12.122,0.00808
12.124,-0.00173
12.126,-0.00836
12.128,0.00363
12.13,0.00599
12.132,0.00827
12.134,0.01517
12.136,0.00436
12.138,-0.00263
12.14,-0.00781
12.142,0.00073
12.144,0.00163
12.146,0.00163
12.148,-0.00136
12.15,-0.00045
12.152,0.00218
12.154,0.00327
12.156,0.00786
12.158,0.00445
12.16,-0.00981
12.162,-0.00032
12.164,0.01045
12.166,-0.00018
12.168,-0.0079
12.17,-0.01762
12.172,-0.00254
12.174,0.00813
12.176,0.00309
12.178,0.00127
12.18,0.01426
12.182,0.00672
12.184,-0.00799
12.186,0.00999
12.188,0.00477
12.19,0.00459
12.192,0.01344
12.194,0.01907
12.196,0.01526
12.198,0.00345
12.2,-0.002
12.202,0.00123
12.204,-0.00463
12.206,-0.00245
12.208,0.00363
12.21,-0.00354
12.212,-0.0089
12.214,-0.00836
12.216,0.00563
12.218,0.00604
12.22,-0.00309
12.222,-0.00908
12.224,-0.0069
12.226,-0.00708
12.228,-0.00427
12.23,0.00272
12.232,0.01135
12.234,0.0139
12.236,0.01603
12.238,0.01099
12.24,0.00672
12.242,0.00454
12.244,-0.00145
12.246,0.00872
12.248,-0.01526
12.25,-0.00663
12.252,-0.01017
12.254,-0.00663
12.256,0.00032
12.258,0.01453
12.26,0.01117
12.262,-0.00245
12.264,0.0015
12.266,0.00936
12.268,0.01544
12.27,0.01453
12.272,0.00241
12.274,0.00318
12.276,-0.00154
12.278,-0.00363
12.28,-0.00599
12.282,-0.00282
12.284,-0.00245
12.286,-0.00459
12.288,-0.00182
12.29,-0.00581
12.292,-0.00527
12.294,-0.00354
12.296,-0.00082
12.298,-0.00282
12.3,0.00145
12.302,0.00681
12.304,0.0079
12.306,0.01853
12.308,-0.00754
12.31,0
12.312,0.00082
12.314,0.00191
12.316,0.00186
12.318,0.0069
12.32,-0.00236
12.322,0.00345
12.324,-0.00845
12.326,-0.00218
12.328,0.00772
12.33,0.00145
12.332,0.00218
12.334,0.01017
12.336,0.00654
12.338,0.00272
12.34,0.00418
12.342,0.00018
12.344,0.00436
12.346,-0.00182
12.348,-0.0079
12.35,-0.00032
12.352,0.00536
12.354,0.00572
12.356,0.01526
12.358,0.03052
12.36,-0.01453
12.362,-0.01889
12.364,-0.01798
12.366,0.00963
12.368,0.003
12.37,-0.00936
12.372,-0.00981
12.374,-0.004
12.376,0.00218
12.378,0.00345
12.38,0.00263
12.382,0.00536
12.384,0.00391
12.386,0.01317
12.388,0.01426
12.39,0.00291
12.392,0.003
12.394,0.00218
12.396,-0.00282
12.398,0.00145
12.4,-0.002
12.402,-0.00618
12.404,-0.00799
12.406,-0.00418
12.408,0.01026
12.41,0.00727
12.412,0.00454
12.414,0.01889
12.416,0.01535
12.418,0.00718
12.42,0.00509
12.422,0.00091
12.424,-0.00313
12.426,-0.00554
12.428,-0.00163
12.43,0.00218
12.432,0.00309
12.434,0.00363
12.436,-0.00054
12.438,-0.00209
12.44,0.00127
12.442,-0.00381
12.444,0.00123
12.446,0.00282
12.448,-0.00282
12.45,-0.00999
12.452,-0.0084
12.454,-0.00259
12.456,-0.00745
12.458,0.00332
12.46,0.00577
12.462,0.00581
12.464,0.00963
12.466,0.01435
12.468,0.01362
12.47,0.00313
12.472,-0.00036
12.474,0.004
12.476,0.00163
12.478,-0.00218
12.48,-0.00104
12.482,0.00218
12.484,0.00254
12.486,0.00232
12.488,0.00422
12.49,-0.00145
12.492,-0.00204
12.494,0.00354
12.496,0.00277
12.498,0.00032
12.5,0.00073
12.502,0
12.504,0.00563
12.506,0.00182
12.508,-0.002
12.51,-0.00581
12.512,-0.00636
12.514,0.00704
12.516,-0.00182
12.518,-0.00141
12.52,0.00291
12.522,-0.00218
12.524,0.00404
12.526,0.01526
12.528,0.01817
12.53,0.0069
12.532,0.00154
12.534,0.00254
12.536,0.00418
12.538,0.004
12.54,0.00227
12.542,-0.002
12.544,-0.00345
12.546,-0.00618
12.548,-0.00372
12.55,-0.00073
12.552,0.00318
12.554,0.00936
12.556,0.01126
12.558,-0.00708
12.56,-0.01599
12.562,-0.00708
12.564,0.00145
12.566,0.00454
12.568,0.00463
12.57,-0.00418
12.572,-0.00854
12.574,0.00436
12.576,0.01608
12.578,0.00027
12.58,-0.00618
12.582,0.00182
12.584,0.00218
12.586,0.0089
12.588,0.01726
12.59,0.0149
12.592,0.00636
12.594,-0.00772
12.596,-0.00708
12.598,-0.00291
12.6,0.00127
12.602,0.00173
12.604,0.00272
12.606,-0.00127
12.608,-0.00163
12.61,0.00386
12.612,-0.001
12.614,0.00073
12.616,0.00032
12.618,0.00145
12.62,0.00245
12.622,0.00018
12.624,-0.0005
12.626,-0.00963
12.628,-0.00518
12.63,-0.00413
12.632,-0.00018
12.634,0.00745
12.636,0.01817
12.638,0.01054
12.64,0.00827
12.642,0.00272
12.644,-0.00454
12.646,-0.00236
12.648,0
12.65,-0.00182
12.652,0.00073
12.654,0.0154
12.656,0.00422
12.658,0.00418
12.66,0.00904
12.662,0.00527
12.664,9.00E-05
12.666,0.00082
12.668,-0.00073
12.67,0.00295
12.672,-0.00127
12.674,-0.00613
12.676,-0.00277
12.678,0.00014
12.68,0.00109
12.682,0
12.684,0.004
12.686,-0.00236
12.688,-0.00082
12.69,-0.00073
12.692,0.00304
12.694,0.00114
12.696,0.00436
12.698,0.00681
12.7,0.004
12.702,0.00272
12.704,-0.00086
12.706,-0.00527
12.708,9.00E-05
12.71,0.01853
12.712,0.00849
12.714,-0.01085
12.716,-0.00163
12.718,0.00154
12.72,0.00531
12.722,0.00277
12.724,-0.00268
12.726,-0.004
12.728,-0.00145
12.73,0.00182
12.732,0.00291
12.734,0.00032
12.736,-0.00354
12.738,0.00963
12.74,0.01017
12.742,0.00704
12.744,0.00436
12.746,0.00322
12.748,0.00636
12.75,-0.00613
12.752,-0.00686
12.754,0.00763
12.756,-0.00173
12.758,-0.00145
12.76,0.00381
12.762,0.00354
12.764,0.00218
12.766,-0.00509
12.768,-0.00672
12.77,0.00295
12.772,0
12.774,0.00681
12.776,0.00345
12.778,-0.0069
12.78,-0.00209
12.782,0.00381
12.784,0.00032
12.786,0.00082
12.788,0.02352
12.79,0.00858
12.792,-0.00291
12.794,0.00109
12.796,0.00291
12.798,0.00254
12.8,0.00259
12.802,-0.00354
12.804,-0.0054
12.806,-0.00254
12.808,0.00254
12.81,0.0049
12.812,0.0049
12.814,0.00672
12.816,0.00345
12.818,-0.00363
12.82,0.00154
12.822,0.00145
12.824,0.00381
12.826,0.00163
12.828,0.00236
12.83,0.00418
12.832,0.00254
12.834,0.00581
12.836,-0.00581
12.838,0.00104
12.84,0.02071
12.842,0.00672
12.844,-0.01721
12.846,-0.00599
12.848,-0.00118
12.85,0.00436
12.852,-0.0059
12.854,0
12.856,0.00472
12.858,0.00509
12.86,0.00981
12.862,0.01535
12.864,-0.00636
12.866,-0.00708
12.868,-0.00636
12.87,-0.00227
12.872,0.01004
12.874,-0.00218
12.876,0
12.878,0.00985
12.88,-0.01267
12.882,0.00736
12.884,0.01798
12.886,0.01017
12.888,0.00291
12.89,-0.00572
12.892,-0.00091
12.894,0.00027
12.896,0.00381
12.898,0.00827
12.9,0.00254
12.902,-0.00318
12.904,-0.00291
12.906,0.01076
12.908,0.00054
12.91,0.00073
12.912,0.00032
12.914,-0.00263
12.916,0.00032
12.918,-0.00254
12.92,-0.00104
12.922,-0.00145
12.924,0.00232
12.926,-0.00073
12.928,0.00354
12.93,0.00422
12.932,0.00363
12.934,0.00182
12.936,0.00259
12.938,0.00082
12.94,0.00182
12.942,0.00254
12.944,0.01022
12.946,0.01907
12.948,0.01244
12.95,-0.02543
12.952,-0.02252
12.954,-0.01144
12.956,-0.00245
12.958,0.00236
12.96,-0.004
12.962,0.00345
12.964,0.01213
12.966,0.01926
12.968,0.01608
12.97,0.00999
12.972,0.00854
12.974,0.00545
12.976,0.00345
12.978,-0.00463
12.98,0.00118
12.982,0.00291
12.984,-0.00127
12.986,-0.00241
12.988,-0.00091
12.99,-0.00245
12.992,-0.00027
12.994,0.00313
12.996,-0.00268
12.998,-0.00014
13,0.00254
13.002,0.00291
13.004,-0.00354
13.006,0.00032
13.008,0.00163
13.01,-0.00054
13.012,0.00291
13.014,0.00186
13.016,0.00082
13.018,0.00713
13.02,0.00182
13.022,0.00064
13.024,0.00218
13.026,0.00032
13.028,0.00409
13.03,0.00545
13.032,0.00332
13.034,0.00404
13.036,0.00186
13.038,0.002
13.04,0.00291
13.042,-0.00145
13.044,0.0109
13.046,0.01326
13.048,-0.01267
13.05,-0.00872
13.052,0.01408
13.054,0.00345
13.056,-0.01199
13.058,0.00781
13.06,0.00313
13.062,-0.02062
13.064,-0.00173
13.066,0.01185
13.068,-0.01054
13.07,-0.01054
13.072,0.00509
13.074,0.00445
13.076,0.00182
13.078,0.003
13.08,0.00418
13.082,-0.00527
13.084,0.00182
13.086,0.00713
13.088,0.00713
13.09,0.00381
13.092,0.00554
13.094,0.00295
13.096,0.00077
13.098,0.00145
13.1,0.00195
13.102,0.00645
13.104,0.00341
13.106,0.00436
13.108,0.00027
13.11,0.00145
13.112,0.002
13.114,0.00182
13.116,0.00182
13.118,-0.00104
13.12,0.00291
13.122,0.00618
13.124,0.00272
13.126,-0.00245
13.128,-0.00327
13.13,-0.00136
13.132,-0.00027
13.134,0.00786
13.136,0.00341
13.138,0.00186
13.14,0.00613
13.142,0.00032
13.144,-0.00372
13.146,0.00182
13.148,-0.00304
13.15,0.00259
13.152,0.00291
13.154,0.01635
13.156,0.00727
13.158,0.00086
13.16,-0.00454
13.162,-0.01199
13.164,0.00354
13.166,0.00182
13.168,0.00091
13.17,-0.00173
13.172,-0.00554
13.174,-0.00636
13.176,-0.00327
13.178,-0.00145
13.18,0.00772
13.182,0.00577
13.184,-0.00059
13.186,-0.00395
13.188,0.00613
13.19,0.00745
13.192,0.00763
13.194,0.00799
13.196,0.00254
13.198,-0.00272
13.2,-0.00354
13.202,0.0059
13.204,-0.00054
13.206,0.00345
13.208,0.00704
13.21,0.00372
13.212,0.00191
13.214,0
13.216,5.00E-05
13.218,0.001
13.22,0.00073
13.222,0.00163
13.224,0.00254
13.226,-0.00073
13.228,0.00082
13.23,-0.00091
13.232,-0.00254
13.234,0.00145
13.236,0.003
13.238,0.00381
13.24,0.00472
13.242,0.00254
13.244,0.00377
13.246,-0.00095
13.248,0.00032
13.25,0.00418
13.252,0.00091
13.254,-0.00109
13.256,0.00091
13.258,0.01499
13.26,0.00218
13.262,-0.01426
13.264,0.01017
13.266,0.00032
13.268,0.00622
13.27,-0.00381
13.272,0.00145
13.274,0.00345
13.276,-0.01381
13.278,-0.00313
13.28,0.00899
13.282,0.00854
13.284,-0.00976
13.286,-0.00127
13.288,0.01203
13.29,0.00291
13.292,0
13.294,-0.00027
13.296,0
13.298,0.00409
13.3,0.00727
13.302,0.00441
13.304,0.00254
13.306,-0.00245
13.308,0.00472
13.31,0.00154
13.312,-0.00354
13.314,0.00627
13.316,0.00531
13.318,0.00132
13.32,0.00436
13.322,0.00309
13.324,0
13.326,0.00218
13.328,-0.0015
13.33,-0.00109
13.332,-0.00023
13.334,-0.00409
13.336,0.00699
13.338,0.00836
13.34,0.00599
13.342,0.01181
13.344,0.00545
13.346,0.01312
13.348,0.00109
13.35,-0.00309
13.352,-0.00304
13.354,-0.00327
13.356,0.00109
13.358,0.00745
13.36,0.00645
13.362,-0.01163
13.364,-0.01017
13.366,-0.002
13.368,0.00114
13.37,0.00032
13.372,-0.00027
13.374,0.00618
13.376,0.00422
13.378,0.005
13.38,0.00472
13.382,0.0035
13.384,0.00182
13.386,0.00772
13.388,0.00381
13.39,-0.00377
13.392,0.00114
13.394,0.00173
13.396,0.00309
13.398,0.00218
13.4,0.00272
13.402,0.00213
13.404,-0.00018
13.406,-0.00018
13.408,-0.00073
13.41,0.00327
13.412,0.003
13.414,0.00463
13.416,0
13.418,0.00436
13.42,0.00917
13.422,0.00781
13.424,0.00109
13.426,-0.00999
13.428,0.00077
13.43,0.00736
13.432,0
13.434,-0.00254
13.436,-0.00218
13.438,0.00527
13.44,0.01208
13.442,-0.00145
13.444,-0.00436
13.446,-0.00672
13.448,-0.00091
13.45,0.00263
13.452,0.00018
13.454,-0.00163
13.456,0.00027
13.458,0.00322
13.46,0.00291
13.462,0.00254
13.464,0.00836
13.466,0.00272
13.468,-0.00036
13.47,-0.00032
13.472,-0.00073
13.474,0.00073
13.476,0.00327
13.478,0.00018
13.48,0.00195
13.482,0.00218
13.484,0.00209
13.486,0.00127
13.488,0.00027
13.49,0.00127
13.492,0.003
13.494,0.00699
13.496,0.00531
13.498,0.00091
13.5,0.00109
13.502,0.00132
13.504,-0.0025
13.506,-0.00145
13.508,-0.00109
13.51,0.00327
13.512,0.00754
13.514,0.00272
13.516,-0.00182
13.518,0.00363
13.52,0.00586
13.522,-0.00708
13.524,-0.00145
13.526,0.00572
13.528,0.00345
13.53,-0.00054
13.532,0.00032
13.534,0.00318
13.536,0.003
13.538,0.00163
13.54,0.00073
13.542,0.00291
13.544,0.00218
13.546,0.005
13.548,-0.001
13.55,-0.00263
13.552,0.00699
13.554,0.00999
13.556,-0.00263
13.558,-0.00272
13.56,-0.00354
13.562,-0.00363
13.564,0.0069
13.566,0.00672
13.568,0.00304
13.57,-0.00054
13.572,0.00145
13.574,0.00808
13.576,0.00418
13.578,-0.00104
13.58,0
13.582,0.00073
13.584,0.00109
13.586,0.00272
13.588,0.00014
13.59,0.005
13.592,0.00509
13.594,0.00032
13.596,0.00372
13.598,0.004
13.6,0.00204
13.602,0.00182
13.604,0.00114
13.606,0.0025
13.608,0
13.61,0.00145
13.612,0.00309
13.614,0.00254
13.616,0.00045
13.618,-0.00236
13.62,-0.00173
13.622,0.01471
13.624,0.01172
13.626,0.00091
13.628,0.00218
13.63,-0.00441
13.632,-0.00272
13.634,-0.004
13.636,-0.00036
13.638,0.00154
13.64,0.00082
13.642,0.00082
13.644,-0.00027
13.646,0.00186
13.648,0.00073
13.65,-0.00036
13.652,0.005
13.654,0
13.656,0.0015
13.658,0.00091
13.66,0.004
13.662,0.00599
13.664,0.00745
13.666,0.00291
13.668,-0.00509
13.67,-0.00109
13.672,0.00209
13.674,0.00581
13.676,0.00309
13.678,0.00618
13.68,0.00549
13.682,0.00109
13.684,-0.00363
13.686,-0.00345
13.688,-0.00045
13.69,0.00236
13.692,0.00014
13.694,0.00527
13.696,0.00363
13.698,0.00073
13.7,-0.00599
13.702,0.00127
13.704,0.00527
13.706,0.002
13.708,-0.00127
13.71,0.00527
13.712,0.00872
13.714,0.0168
13.716,-0.00463
13.718,-0.00727
13.72,-0.00182
13.722,-0.00109
13.724,0.00073
13.726,-0.01017
13.728,0.00313
13.73,0.00654
13.732,0.00145
13.734,-0.00945
13.736,-0.00549
13.738,0.00218
13.74,0.01276
13.742,0.00881
13.744,0.00568
13.746,-0.00045
13.748,0.00109
13.75,0.00145
13.752,0.00545
13.754,0.0059
13.756,-0.00145
13.758,-0.00327
13.76,0.00808
13.762,0.00981
13.764,-0.00545
13.766,0
13.768,0.00236
13.77,0.00127
13.772,0.00332
13.774,0.00618
13.776,0.00713
13.778,0.00272
13.78,-0.00568
13.782,-0.00386
13.784,0.002
13.786,0.00454
13.788,0.00263
13.79,0.00418
13.792,0.00904
13.794,0.00291
13.796,-0.00604
13.798,-0.00118
13.8,0.00218
13.802,0.003
13.804,0.00073
13.806,-0.00263
13.808,0.00032
13.81,0.00817
13.812,0.00304
13.814,-0.00163
13.816,-0.00027
13.818,-0.00254
13.82,0.00032
13.822,0.00509
13.824,0.00259
13.826,-0.00073
13.828,0.00581
13.83,0.00554
13.832,0.00531
13.834,0.00077
13.836,0.00027
13.838,0.00073
13.84,-0.00127
13.842,0.00727
13.844,0.00445
13.846,-0.00227
13.848,-0.00917
13.85,-0.00813
13.852,-0.00054
13.854,0.00354
13.856,0.00445
13.858,0.00672
13.86,0.00073
13.862,0.002
13.864,0.01381
13.866,0.00763
13.868,0.00372
13.87,9.00E-05
13.872,0.00291
13.874,0.00436
13.876,0
13.878,0.00186
13.88,0.00027
13.882,0.00109
13.884,-0.00472
13.886,-0.00799
13.888,-0.00159
13.89,0.02825
13.892,-0.0049
13.894,-0.00981
13.896,0.00077
13.898,0.0035
13.9,0.00381
13.902,0.00441
13.904,0.00145
13.906,0.00227
13.908,-0.00118
13.91,-0.00545
13.912,-0.002
13.914,0.00027
13.916,0.00227
13.918,0.00332
13.92,0.00436
13.922,0.01017
13.924,0.00454
13.926,-0.00336
13.928,-0.00027
13.93,0.00454
13.932,0.00254
13.934,0.00195
13.936,0.00254
13.938,0.00127
13.94,0.0045
13.942,0.00545
13.944,0.00372
13.946,0.00182
13.948,-0.00182
13.95,0.00268
13.952,0.00372
13.954,0.00422
13.956,0.00127
13.958,0.00272
13.96,-0.00091
13.962,0.00799
13.964,-0.00736
13.966,-0.0035
13.968,0.00018
13.97,-0.00182
13.972,0.00563
13.974,-0.00654
13.976,-0.00436
13.978,-0.00091
13.98,0.00114
13.982,0.00827
13.984,0.00545
13.986,0.0069
13.988,0.00749
13.99,0.00163
13.992,-0.00272
13.994,-0.00154
13.996,0.004
13.998,0.00327
14,0.00173
14.002,0.00309
14.004,0.00445
14.006,0.00268
14.008,0.00041
14.01,-0.00254
14.012,-0.0005
14.014,0.00109
14.016,0.00445
14.018,-0.00799
14.02,-0.00073
14.022,0.004
14.024,0.00808
14.026,0.00359
14.028,-0.00014
14.03,0.00454
14.032,0.00808
14.034,-0.01662
14.036,0.00109
14.038,0.00808
14.04,0.00291
14.042,-0.00104
14.044,-0.00218
14.046,-0.001
14.048,0.00082
14.05,0.00481
14.052,0.00436
14.054,0.00413
14.056,0.00363
14.058,0.00309
14.06,0.00091
14.062,0.00345
14.064,0.00372
14.066,-0.00527
14.068,-0.00263
14.07,0.00509
14.072,0.00154
14.074,-0.00073
14.076,0.00073
14.078,0.00073
14.08,0.00182
14.082,0.00636
14.084,-0.00104
14.086,0.00182
14.088,0.00817
14.09,0.00218
14.092,0.00518
14.094,0.00309
14.096,-0.01176
14.098,-0.00127
14.1,0.00163
14.102,0.00268
14.104,0.00613
14.106,0
14.108,0.00204
14.11,0.00668
14.112,-0.00313
14.114,0.00027
14.116,0.00318
14.118,0.00109
14.12,0.00168
14.122,0.00073
14.124,0.01153
14.126,-0.00163
14.128,-0.01017
14.13,0.00223
14.132,0.00663
14.134,0.00309
14.136,0.00363
14.138,-0.00141
14.14,-0.00899
14.142,0.00363
14.144,0.00745
14.146,0.00622
14.148,0.005
14.15,0.00154
14.152,-0.00127
14.154,0.00454
14.156,0.00245
14.158,-0.00073
14.16,0.00109
14.162,-0.00363
14.164,0.00032
14.166,-0.00073
14.168,0.00227
14.17,0.00781
14.172,0.01149
14.174,0.00082
14.176,-0.00436
14.178,0.00032
14.18,0.00313
14.182,0.01035
14.184,0.00908
14.186,0.00472
14.188,-0.01444
14.19,-0.00845
14.192,-0.00064
14.194,0.0069
14.196,0.00981
14.198,0.00145
14.2,-0.00209
14.202,-0.00073
14.204,-0.0069
14.206,-0.00636
14.208,0.00636
14.21,0.00409
14.212,0.00163
14.214,0.00263
14.216,-0.00318
14.218,0.01421
14.22,0.00763
14.222,0.00236
14.224,-0.00354
14.226,0.00254
14.228,0.00272
14.23,0.00954
14.232,0.00263
14.234,-0.001
14.236,0.00163
14.238,-0.00931
14.24,-0.00908
14.242,0.00527
14.244,0.00704
14.246,0.00254
14.248,-0.00145
14.25,0.00163
14.252,0.00032
14.254,0.00032
14.256,-0.00127
14.258,0.00114
14.26,0.00858
14.262,0.0069
14.264,-0.00209
14.266,0.00581
14.268,0.00327
14.27,0.00032
14.272,0.00163
14.274,0.00372
14.276,-0.00636
14.278,-0.00109
14.28,0.00218
14.282,0.00295
14.284,9.00E-05
14.286,0.00254
14.288,0.00186
14.29,0
14.292,0.00409
14.294,0.00254
14.296,0.00191
14.298,0.00436
14.3,-9.00E-05
14.302,0.00259
14.304,0.00381
14.306,0.00441
14.308,0
14.31,-0.00604
14.312,0.00504
14.314,0.00654
14.316,0.00186
14.318,0.00145
14.32,0.00145
14.322,0.00091
14.324,-0.00218
14.326,-0.00263
14.328,-0.00036
14.33,0.00763
14.332,0.00817
14.334,-0.00327
14.336,-0.00436
14.338,0.0054
14.34,0.00182
14.342,0.00309
14.344,-0.00054
14.346,0.00109
14.348,0.00418
14.35,0.00218
14.352,-0.002
14.354,9.00E-05
14.356,0.0049
14.358,0.0089
14.36,0.00327
14.362,0.00872
14.364,-0.00227
14.366,-0.01126
14.368,-0.001
14.37,-0.00163
14.372,0.00082
14.374,0.00663
14.376,0.005
14.378,0.00404
14.38,0.00023
14.382,0.00327
14.384,0.00182
14.386,0.00309
14.388,-0.00204
14.39,0.00018
14.392,-0.00182
14.394,0.00227
14.396,-0.00014
14.398,0.00563
14.4,0.00481
14.402,0.00404
14.404,0.00127
14.406,0.01998
14.408,-0.01726
14.41,-0.01113
14.412,0.00236
14.414,0.00908
14.416,0.01054
14.418,-0.00027
14.42,-0.0049
14.422,-0.00036
14.424,0.00218
14.426,0.00254
14.428,0.00486
14.43,-0.0079
14.432,-0.00254
14.434,0.00232
14.436,0.00318
14.438,0.0054
14.44,0.00254
14.442,0.00295
14.444,0.00454
14.446,0.00345
14.448,0.00118
14.45,0.00141
14.452,-0.00254
14.454,0.00345
14.456,0.00454
14.458,-0.00209
14.46,-0.00073
14.462,0.00223
14.464,0.0015
14.466,-0.00073
14.468,0.00836
14.47,0.00817
14.472,0.00236
14.474,-0.00363
14.476,0.00963
14.478,0.00436
14.48,-0.0094
14.482,-0.0069
14.484,-0.00291
14.486,-0.00354
14.488,0.00509
14.49,0.00545
14.492,0.004
14.494,0.0059
14.496,0.00472
14.498,0.00091
14.5,0
14.502,-0.00073
14.504,-0.00218
14.506,0.00204
14.508,0.00381
14.51,0.00145
14.512,0.00032
14.514,0.00163
14.516,0.00032
14.518,0.00145
14.52,0.00182
14.522,0.004
14.524,0.004
14.526,0.00254
14.528,0.00291
14.53,0.00145
14.532,0.0049
14.534,0.00291
14.536,0.00327
14.538,-0.00327
14.54,-0.00381
14.542,-0.00381
14.544,0.00291
14.546,0.00182
14.548,0.00354
14.55,0.00472
14.552,0.00686
14.554,-0.00036
14.556,-0.00036
14.558,0.00073
14.56,0.0119
14.562,0.01294
14.564,0.00127
14.566,0.00223
14.568,0.01253
14.57,-0.00899
14.572,-0.0208
14.574,-0.00509
14.576,0.00123
14.578,0.01644
14.58,-0.00572
14.582,0.00218
14.584,0.01399
14.586,-0.01017
14.588,0.00091
14.59,0.00663
14.592,-0.00454
14.594,-0.00699
14.596,0.00154
14.598,0.00318
14.6,0.00118
14.602,0.00372
14.604,0.00191
14.606,-0.00045
14.608,0.00409
14.61,0.00781
14.612,0.00291
14.614,0.00472
14.616,0.00313
14.618,0.00345
14.62,0.00014
14.622,-0.00218
14.624,-0.00327
14.626,0.00908
14.628,0.00218
14.63,0.00363
14.632,0.004
14.634,0.00291
14.636,0.00077
14.638,0.00563
14.64,0
14.642,0.004
14.644,0.00272
14.646,0.00154
14.648,-0.00104
14.65,-0.00327
14.652,9.00E-05
14.654,0.00745
14.656,0.00817
14.658,0.01199
14.66,0.00182
14.662,-0.00563
14.664,-0.00036
14.666,0.00032
14.668,-0.00899
14.67,-0.00477
14.672,-0.01063
14.674,-0.00872
14.676,0.00259
14.678,0.00695
14.68,0.0109
14.682,0.0089
14.684,-0.00095
14.686,0.00032
14.688,0.00227
14.69,0.00109
14.692,0.0035
14.694,0.00114
14.696,0.0045
14.698,0.00381
14.7,0.00391
14.702,0.00327
14.704,0.003
14.706,0.00509
14.708,0.00109
14.71,0.00182
14.712,0
14.714,0.00495
14.716,0.003
14.718,0.00073
14.72,-0.00073
14.722,0.00463
14.724,0.00463
14.726,-0.0069
14.728,0.00032
14.73,0.00372
14.732,0.00027
14.734,-0.00672
14.736,-0.00145
14.738,0.00581
14.74,0.003
14.742,0.00409
14.744,0.00445
14.746,0.0069
14.748,0.00263
14.75,-0.00159
14.752,0
14.754,0.00327
14.756,0.00227
14.758,-0.00236
14.76,0.00263
14.762,0.00168
14.764,0.00209
14.766,0.0049
14.768,0.00436
14.77,0.00182
14.772,0.00163
14.774,-0.00073
14.776,-0.00259
14.778,0.00327
14.78,0.00472
14.782,0.004
14.784,0.00817
14.786,0.0049
14.788,0.00763
14.79,0.00182
14.792,-0.00836
14.794,0.00313
14.796,-0.00195
14.798,-0.00472
14.8,-0.00145
14.802,0.01199
14.804,0.0049
14.806,-0.00609
14.808,-0.00395
14.81,0.00018
14.812,0.00872
14.814,-0.01099
14.816,0.003
14.818,0.01181
14.82,0.00268
14.822,0.00204
14.824,0.00032
14.826,0.00204
14.828,0.00163
14.83,0.00445
14.832,0.00182
14.834,0.00163
14.836,0.00109
14.838,0.00309
14.84,0.00254
14.842,0.00109
14.844,0
14.846,0.00363
14.848,0.00241
14.85,0.00163
14.852,0.00436
14.854,0.00836
14.856,-0.00182
14.858,0.00059
14.86,0.00359
14.862,0.00218
14.864,0.00291
14.866,0.001
14.868,0.00145
14.87,-0.00309
14.872,-0.00354
14.874,-0.00168
14.876,0.00522
14.878,0.00082
14.88,-0.00182
14.882,0.004
14.884,0.00559
14.886,0.00495
14.888,-0.00209
14.89,-0.00218
14.892,0.00277
14.894,0.00163
14.896,0.00363
14.898,0.00268
14.9,-0.00418
14.902,-0.00318
14.904,0.00363
14.906,0.00077
14.908,-0.00141
14.91,0.00268
14.912,0.00654
14.914,0.01054
14.916,0.00545
14.918,0.00472
14.92,0.00618
14.922,0.00767
14.924,0.00372
14.926,0.00236
14.928,-0.00036
14.93,-0.00645
14.932,-0.00708
14.934,-0.00549
14.936,-0.00436
14.938,-0.00313
14.94,0.00218
14.942,0.00182
14.944,0.00118
14.946,-0.002
14.948,-0.00254
14.95,0.00327
14.952,0.01026
14.954,0.01217
14.956,0.01104
14.958,0.01417
14.96,0.00954
14.962,-0.00027
14.964,-0.004
14.966,-0.00327
14.968,-0.00313
14.97,0.00032
14.972,-0.00141
14.974,-0.00018
14.976,0.00018
14.978,-0.00036
14.98,0.00127
14.982,0.00145
14.984,0.00154
14.986,0.00145
14.988,0.00454
14.99,-0.00663
14.992,0.00618
14.994,0.01353
14.996,0.00318
14.998,-0.00291
15,-0.00218
15.002,-0.0005
15.004,0
15.006,-0.00018
15.008,0.00313
15.01,0.00536
15.012,0.00027
15.014,0.00136
15.016,-0.00254
15.018,-0.00799
15.02,-0.00886
15.022,-0.00572
15.024,-0.001
15.026,0.01126
15.028,0.0198
15.03,0.02216
15.032,0.01371
15.034,0.00436
15.036,-0.00291
15.038,-0.00509
15.04,-0.00182
15.042,-0.00036
15.044,0.00817
15.046,0.00727
15.048,0.00263
15.05,-0.00318
15.052,-0.00354
15.054,-0.00054
15.056,-0.00563
15.058,-0.00418
15.06,0.00404
15.062,0.00363
15.064,-0.00309
15.066,-0.00563
15.068,-0.00073
15.07,0.00291
15.072,0.00018
15.074,-0.00145
15.076,0.00118
15.078,0.00509
15.08,0.00345
15.082,0.00699
15.084,-0.005
15.086,-0.01235
15.088,0.00436
15.09,0.01608
15.092,0.01544
15.094,0.01017
15.096,0.00318
15.098,0.00518
15.1,0.00545
15.102,0.00073
15.104,-0.00036
15.106,-0.002
15.108,-0.00073
15.11,-0.00245
15.112,-0.00549
15.114,-0.00309
15.116,0.00518
15.118,-0.00413
15.12,0.00509
15.122,-0.00522
15.124,-0.00145
15.126,0.00472
15.128,0.00713
15.13,0.00218
15.132,0.00182
15.134,-0.00291
15.136,-0.00336
15.138,0.00032
15.14,0.00436
15.142,0.01362
15.144,0.02198
15.146,0.00836
15.148,0.00254
15.15,-0.00054
15.152,-0.00027
15.154,-0.00345
15.156,-0.00595
15.158,-0.00182
15.16,0.00163
15.162,0.00549
15.164,0.00182
15.166,0
15.168,0.00073
15.17,0.00218
15.172,0.00363
15.174,0.00236
15.176,-0.00418
15.178,0
15.18,0.00586
15.182,0.00422
15.184,0.00327
15.186,-0.00073
15.188,-0.00118
15.19,-0.00431
15.192,0.00322
15.194,0.00681
15.196,-0.00808
15.198,0.00854
15.2,0.01717
15.202,0.01108
15.204,0.00549
15.206,0.00218
15.208,-0.00054
15.21,-0.00073
15.212,-0.00145
15.214,-0.01712
15.216,-0.01762
15.218,0.00091
15.22,0.00908
15.222,0.01081
15.224,0.0148
15.226,0.01544
15.228,0.00636
15.23,0.004
15.232,-0.00827
15.234,-0.01399
15.236,-0.01435
15.238,-0.00645
15.24,-0.00799
15.242,0.00254
15.244,0.00454
15.246,0.00436
15.248,0.00132
15.25,-0.003
15.252,0.00073
15.254,-0.00995
15.256,-0.00981
15.258,-0.00468
15.26,0.00345
15.262,0.01926
15.264,0.02843
15.266,0.02825
15.268,0.01526
15.27,0.01035
15.272,0.00613
15.274,0.00259
15.276,0.00908
15.278,0.01099
15.28,-0.02752
15.282,-0.03347
15.284,-0.00917
15.286,-0.00345
15.288,0.00163
15.29,0.00895
15.292,0.00191
15.294,-0.00817
15.296,-0.01163
15.298,-0.00118
15.3,0.00182
15.302,0.00309
15.304,0.00254
15.306,0.0074
15.308,0.02143
15.31,0.02707
15.312,0.0168
15.314,0.0247
15.316,0.02897
15.318,0.01603
15.32,0.01589
15.322,0.00073
15.324,-0.03342
15.326,-0.02016
15.328,-0.01971
15.33,-0.02543
15.332,-0.01362
15.334,-0.02262
15.336,-0.02679
15.338,-0.03179
15.34,-0.0059
15.342,0.01035
15.344,0.00545
15.346,-0.00441
15.348,-0.00272
15.35,0.00091
15.352,0.01017
15.354,0.00936
15.356,0.02738
15.358,0.03088
15.36,0.04986
15.362,0.03547
15.364,0.01235
15.366,0.01535
15.368,0.00908
15.37,-0.00104
15.372,-0.01362
15.374,-0.00045
15.376,-0.00014
15.378,0.00054
15.38,0.00609
15.382,-0.00563
15.384,-0.01035
15.386,-0.01308
15.388,-0.00545
15.39,-0.00945
15.392,-0.01122
15.394,-0.00272
15.396,0.00645
15.398,0.00645
15.4,0.00472
15.402,-0.00168
15.404,-0.0089
15.406,0.00545
15.408,0.01776
15.41,0.01272
15.412,0.00386
15.414,-0.00763
15.416,-0.01989
15.418,-0.00999
15.42,0.01181
15.422,0.02616
15.424,0.02153
15.426,0.00545
15.428,-0.00272
15.43,-0.00282
15.432,0.00422
15.434,0.00313
15.436,-0.00727
15.438,-0.01971
15.44,-0.00708
15.442,0.00609
15.444,0.00332
15.446,-0.00254
15.448,-0.01149
15.45,0.002
15.452,0.02066
15.454,0.0069
15.456,0.00209
15.458,-0.00109
15.46,0.00872
15.462,0.02007
15.464,0.01272
15.466,0.01789
15.468,0.00917
15.47,0.00054
15.472,-0.01017
15.474,-0.02906
15.476,-0.01853
15.478,-0.00908
15.48,-0.01244
15.482,-0.00699
15.484,-0.00763
15.486,-0.00354
15.488,-0.00727
15.49,-0.00436
15.492,0.00858
15.494,0.01203
15.496,0.0129
15.498,0.00763
15.5,0.01194
15.502,0.0139
15.504,0.01026
15.506,0.01099
15.508,0.00436
15.51,0.00422
15.512,0.01017
15.514,0.0158
15.516,0.00486
15.518,0.00227
15.52,0.01076
15.522,0.00795
15.524,-0.00114
15.526,-0.00163
15.528,-0.00472
15.53,0.00318
15.532,0.00227
15.534,-0.01444
15.536,-0.00708
15.538,-0.00854
15.54,0.00027
15.542,0.00327
15.544,0.00073
15.546,0.00204
15.548,-0.00781
15.55,-0.00204
15.552,0.00736
15.554,0.0015
15.556,0.00481
15.558,0.01022
15.56,0.01653
15.562,0.00836
15.564,0.01235
15.566,0.02997
15.568,0.03474
15.57,0.0099
15.572,-0.02734
15.574,-0.02616
15.576,-0.00945
15.578,-0.01526
15.58,-0.03969
15.582,-0.05704
15.584,-0.05232
15.586,-0.00872
15.588,0.01889
15.59,0.02616
15.592,0.03006
15.594,0.01817
15.596,-0.00064
15.598,-0.00272
15.6,0.02189
15.602,0.01698
15.604,0.01726
15.606,0.00945
15.608,0.00654
15.61,0.00073
15.612,-0.00245
15.614,0.00032
15.616,0.00445
15.618,0.00981
15.62,-0.00023
15.622,0.01262
15.624,0.01381
15.626,0.01272
15.628,-0.00054
15.63,-0.00872
15.632,-0.01626
15.634,-0.01698
15.636,-0.02098
15.638,-0.01708
15.64,0.02071
15.642,0.00336
15.644,-0.01626
15.646,-0.02216
15.648,0.00699
15.65,0.0129
15.652,0.00645
15.654,0.03383
15.656,0.03724
15.658,0.01435
15.66,0.01612
15.662,0.00154
15.664,-0.01998
15.666,-0.01689
15.668,-0.0158
15.67,-0.00354
15.672,0.01181
15.674,-0.00836
15.676,-0.01744
15.678,0.02398
15.68,0.02802
15.682,0.02162
15.684,0.01126
15.686,0.00936
15.688,0.01608
15.69,0.00182
15.692,-0.01871
15.694,-0.01535
15.696,-0.01717
15.698,-0.02071
15.7,-0.01635
15.702,-0.0049
15.704,-0.00827
15.706,-0.00618
15.708,-0.00073
15.71,0.02516
15.712,0.05322
15.714,0.01671
15.716,-0.00599
15.718,-0.01081
15.72,0.02357
15.722,0.02634
15.724,0.00018
15.726,-0.00527
15.728,0.00118
15.73,0.00218
15.732,-0.00454
15.734,-0.00445
15.736,-0.0129
15.738,-0.01381
15.74,-0.002
15.742,-0.01426
15.744,-0.00708
15.746,0.00282
15.748,-0.01199
15.75,0.00259
15.752,0.01353
15.754,0.00182
15.756,0.01163
15.758,0.02943
15.76,0.00218
15.762,-0.00936
15.764,0.00545
15.766,0.00572
15.768,-0.00032
15.77,-0.00313
15.772,0.00363
15.774,0.01944
15.776,0.00418
15.778,0.01571
15.78,0.01208
15.782,0.01203
15.784,-0.004
15.786,0.00341
15.788,0.00481
15.79,-0.00173
15.792,0.00872
15.794,-0.02343
15.796,-0.04178
15.798,-0.03987
15.8,-0.00718
15.802,-0.00082
15.804,-0.02007
15.806,-0.04173
15.808,-0.01344
15.81,0.02234
15.812,0.01653
15.814,0.02053
15.816,0.01753
15.818,0.02407
15.82,0.01253
15.822,0.0149
15.824,0.03669
15.826,0.02271
15.828,0.03797
15.83,0.03202
15.832,0.02398
15.834,0.02543
15.836,0.03165
15.838,-0.00218
15.84,-0.04105
15.842,-0.06494
15.844,-0.13024
15.846,-0.1079
15.848,-0.03197
15.85,0.04936
15.852,0.04741
15.854,0.02053
15.856,0.00127
15.858,-0.00218
15.86,0.01435
15.862,0.02952
15.864,0.00763
15.866,-0.02252
15.868,-0.01726
15.87,-0.0079
15.872,0.00981
15.874,0.03751
15.876,0.02457
15.878,0.01962
15.88,0.00527
15.882,-0.00708
15.884,0.00708
15.886,0.02039
15.888,0.00618
15.89,0.01467
15.892,0.02266
15.894,0.02625
15.896,0.03433
15.898,0.02407
15.9,0.03361
15.902,0.01617
15.904,-0.01362
15.906,-0.02634
15.908,-0.04741
15.91,-0.07193
15.912,-0.05209
15.914,-0.01798
15.916,-0.01344
15.918,0.00808
15.92,0.01144
15.922,-0.0049
15.924,-0.02648
15.926,-0.00531
15.928,0.03015
15.93,0.04759
15.932,0.03806
15.934,0.03261
15.936,0.0544
15.938,0.06371
15.94,0.05995
15.942,0.02888
15.944,0.00327
15.946,0.02262
15.948,0.00322
15.95,-0.10481
15.952,-0.07557
15.954,-0.03597
15.956,-0.06599
15.958,-0.11299
15.96,-0.08683
15.962,-0.06757
15.964,0.00418
15.966,0.02725
15.968,0.03878
15.97,0.03851
15.972,0.05023
15.974,0.06975
15.976,0.08138
15.978,0.09164
15.98,0.11103
15.982,0.10608
15.984,0.08174
15.986,0.05341
15.988,0.04269
15.99,-0.06022
15.992,-0.18192
15.994,-0.23674
15.996,-0.15731
15.998,-0.11608
16,-0.11344
16.002,-0.03374
16.004,0.06939
16.006,0.08174
16.008,0.08901
16.01,0.06939
16.012,0.06149
16.014,0.04868
16.016,0.05495
16.018,0.01344
16.02,-0.03015
16.022,-0.03987
16.024,-0.06004
16.026,-0.07829
16.028,-0.0109
16.03,0.03815
16.032,0.04382
16.034,0.01099
16.036,0.00763
16.038,0.02616
16.04,0.03778
16.042,0.05082
16.044,0.0416
16.046,0.02234
16.048,0.02007
16.05,-0.00136
16.052,-0.00327
16.054,0.01362
16.056,0.00318
16.058,-0.02688
16.06,-0.0525
16.062,-0.01599
16.064,0.00636
16.066,-0.0049
16.068,0.01058
16.07,0.02725
16.072,0.02925
16.074,0.01599
16.076,0.00163
16.078,-0.00963
16.08,-0.01762
16.082,9.00E-05
16.084,0.00463
16.086,-0.01462
16.088,-0.00545
16.09,-0.00908
16.092,-0.001
16.094,-0.00472
16.096,-0.01853
16.098,0.00872
16.1,0.0178
16.102,0.01562
16.104,0.03479
16.106,0.03124
16.108,0.01998
16.11,0.00345
16.112,0.01535
16.114,-0.00123
16.116,-0.0188
16.118,-0.01926
16.12,-0.03124
16.122,-0.06885
16.124,-0.06321
16.126,-0.05604
16.128,-0.05377
16.13,0.01453
16.132,0.03642
16.134,0.03669
16.136,0.08338
16.138,0.07498
16.14,0.04682
16.142,-0.00627
16.144,0.00182
16.146,-0.01081
16.148,0.01235
16.15,0.03515
16.152,0.05931
16.154,0.10445
16.156,0.0733
16.158,0.00981
16.16,-0.02888
16.162,-0.09519
16.164,-0.07934
16.166,-0.06458
16.168,-0.0946
16.17,-0.05059
16.172,-0.004
16.174,0.03506
16.176,0.003
16.178,-0.02579
16.18,-0.07793
16.182,-0.07775
16.184,-0.04732
16.186,0.05145
16.188,-0.01798
16.19,-0.00136
16.192,0.02916
16.194,0.00854
16.196,0.00436
16.198,0.02071
16.2,0.06222
16.202,0.07775
16.204,0.05341
16.206,0.02666
16.208,0.00436
16.21,0.02525
16.212,0.03878
16.214,0.03233
16.216,0.01835
16.218,0.02398
16.22,0.03724
16.222,0.03574
16.224,-0.00945
16.226,-0.06648
16.228,-0.07339
16.23,-0.08156
16.232,-0.04596
16.234,0.00032
16.236,0.0218
16.238,0.03401
16.24,0.01744
16.242,0.02734
16.244,0.00872
16.246,0.00318
16.248,0.01562
16.25,0.02852
16.252,-0.00272
16.254,-0.01371
16.256,0.02157
16.258,0.00309
16.26,-0.01135
16.262,-0.01344
16.264,-0.03669
16.266,-0.03397
16.268,-0.01644
16.27,-0.00863
16.272,0.01653
16.274,0.04796
16.276,0.00917
16.278,0.00436
16.28,0.00182
16.282,0.04369
16.284,0.05849
16.286,0.0535
16.288,-0.06944
16.29,-0.04932
16.292,0.01453
16.294,-0.01181
16.296,-0.05913
16.298,-0.02598
16.3,-0.00763
16.302,-0.02098
16.304,0.04596
16.306,0.06149
16.308,0.07384
16.31,0.06549
16.312,0.08583
16.314,0.06994
16.316,-0.01235
16.318,-0.04755
16.32,-0.05486
16.322,-0.04151
16.324,-0.06721
16.326,-0.01008
16.328,0.04069
16.33,0.03252
16.332,0.004
16.334,-0.08974
16.336,-0.20263
16.338,-0.25168
16.34,-0.10245
16.342,0.0396
16.344,0.08515
16.346,0.03597
16.348,0.06231
16.35,-0.00209
16.352,-0.04496
16.354,0.00581
16.356,0.02929
16.358,0.12425
16.36,0.15722
16.362,0.15041
16.364,0.14396
16.366,0.0945
16.368,0.06067
16.37,5.00E-05
16.372,-0.03247
16.374,-0.06158
16.376,-0.14223
16.378,-0.23179
16.38,-0.13492
16.382,-0.0292
16.384,0.02116
16.386,0.05758
16.388,0.04496
16.39,0.03815
16.392,0.0525
16.394,0.05313
16.396,-0.00218
16.398,0.01367
16.4,-0.01104
16.402,0.01562
16.404,0.00073
16.406,-0.01544
16.408,0.00291
16.41,0.02906
16.412,-0.01599
16.414,-0.01054
16.416,-0.00109
16.418,0.01126
16.42,0.03787
16.422,0.00254
16.424,-0.01199
16.426,-0.01944
16.428,-0.0416
16.43,-0.03147
16.432,0.00218
16.434,0.03043
16.436,0.03933
16.438,0.04995
16.44,0.01544
16.442,0.02075
16.444,0.0272
16.446,-0.01871
16.448,0.00817
16.45,0.055
16.452,0.02784
16.454,-0.04251
16.456,-0.11008
16.458,-0.07166
16.46,-0.03724
16.462,0.03206
16.464,0.04614
16.466,0.04323
16.468,0.08247
16.47,0.07166
16.472,0.00736
16.474,-0.07702
16.476,-0.11467
16.478,-0.05123
16.48,-0.02811
16.482,-0.01303
16.484,0.02725
16.486,0.03706
16.488,0.0485
16.49,0.00291
16.492,0.00145
16.494,0.06948
16.496,0.00531
16.498,0.02221
16.5,0.01308
16.502,0.03134
16.504,0.06367
16.506,-0.03924
16.508,-0.14078
16.51,-0.02525
16.512,0.02407
16.514,-0.06903
16.516,-0.14405
16.518,-0.00395
16.52,0.09391
16.522,0.05095
16.524,0.00327
16.526,-0.01362
16.528,-0.03915
16.53,-0.01998
16.532,0.03524
16.534,0.04455
16.536,0.03061
16.538,-0.00272
16.54,0.01603
16.542,0.00032
16.544,-0.00322
16.546,0.03715
16.548,0.02035
16.55,0.03124
16.552,-0.00899
16.554,0.00654
16.556,0.01635
16.558,-0.00922
16.56,0.01635
16.562,-0.01871
16.564,-0.00327
16.566,0.00522
16.568,-0.03388
16.57,0.01535
16.572,0.03906
16.574,-0.01926
16.576,-0.02107
16.578,-0.00036
16.58,0.03878
16.582,0.04541
16.584,0.02852
16.586,-0.00799
16.588,-0.04096
16.59,-0.01608
16.592,-0.0149
16.594,-0.07121
16.596,-0.04923
16.598,0.03052
16.6,0.0634
16.602,0.03765
16.604,0.03015
16.606,0.02688
16.608,0.00618
16.61,0.00745
16.612,-0.03433
16.614,-0.02743
16.616,-0.03342
16.618,-0.07366
16.62,-0.02797
16.622,-0.00463
16.624,0.02634
16.626,0.08029
16.628,0.12398
16.63,0.13388
16.632,0.0307
16.634,-0.01308
16.636,-0.04133
16.638,-0.04814
16.64,-0.08138
16.642,-0.10872
16.644,-0.02643
16.646,0.07693
16.648,0.07312
16.65,-0.02598
16.652,0.00618
16.654,0.01499
16.656,0.00754
16.658,-0.02797
16.66,-0.10027
16.662,-0.0148
16.664,-0.0327
16.666,-0.06807
16.668,-0.0653
16.67,-0.00645
16.672,0.03106
16.674,0.02357
16.676,0.07684
16.678,0.0861
16.68,0.03815
16.682,0.02443
16.684,0.02507
16.686,0.06485
16.688,-0.01444
16.69,-0.0178
16.692,0.02979
16.694,0.02107
16.696,-0.01653
16.698,-0.04977
16.7,-0.08583
16.702,-0.16403
